tau,gamma,sigma_gamma
1e-07,-0.0051514264587916025,1.498984615189077
1.1097524964120721e-07,-0.005714448347955148,1.4989840975127073
1.2315506032928263e-07,-0.00633860669766316,1.498983460518737
1.3667163564620074e-07,-0.007030436715289398,1.4989826768062204
1.5167168884709241e-07,-0.007797146778309505,1.4989817127208063
1.6831803533309585e-07,-0.008646681867503794,1.4989805269424303
1.867913599020781e-07,-0.009587791684965305,1.4989790687594902
2.0729217795953698e-07,-0.010630103472389546,1.4989772759618352
2.300430119772917e-07,-0.011784199624144398,1.4989750722709563
2.5529080682395163e-07,-0.0130616998237017,1.4989723642091815
2.833096101839324e-07,-0.014475347630259455,1.498969037289988
3.1440354715915e-07,-0.016039101488605656,1.4989649513881107
3.489101213406774e-07,-0.017768228295550054,1.4989599351215035
3.872038781812557e-07,-0.019679401264921514,1.498953779043626
4.2970047043208437e-07,-0.021790798714449222,1.498946227409186
4.768611697714474e-07,-0.024122204103923517,1.498936968231675
5.291978735958437e-07,-0.026695105390378504,1.4989256213021174
5.872786613189477e-07,-0.029532791955905247,1.498911723781434
6.517339604882421e-07,-0.03266044703255583,1.4988947129144965
7.232633896483533e-07,-0.03610523296767476,1.4988739053416844
8.026433522257174e-07,-0.03989636644580774,1.498848472403423
8.907354638610439e-07,-0.0440651800677575,1.4988174107450443
9.884959046625586e-07,-0.04864516637681393,1.498779507433733
1.096985797892384e-06,-0.05367199972736891,1.498733298697764
1.217382727739662e-06,-0.05918353092002926,1.4986770212921054
1.3509935211980278e-06,-0.06521974891824389,1.498608555386751
1.499268432786047e-06,-0.07182270341768127,1.4985253577683209
1.6638168860761274e-06,-0.07903638148621284,1.498424384046472
1.8464249428955464e-06,-0.08690653102816137,1.4983019984707917
2.049074689815846e-06,-0.09548042336164841,1.498153869898728
2.2739657523579273e-06,-0.10480654693081393,1.4979748524203644
2.523539170434766e-06,-0.11493422391373787,1.4977588491523206
2.800503894183631e-06,-0.125913141518754,1.4974986577736331
3.107866187782014e-06,-0.13779278989238164,1.497185796505229
3.4489622604057595e-06,-0.15062179900027584,1.4968103094468177
3.827494478516315e-06,-0.16444716753947697,1.4963605504966542
4.247571552536894e-06,-0.17931337797833047,1.4958229455064267
4.713753134116729e-06,-0.19526139321407499,1.4951817328801693
5.2310993080562585e-06,-0.21232753217225486,1.4944186835253137
5.805225516094895e-06,-0.23054222391346446,1.4935128019143036
6.44236350872137e-06,-0.24992864254940317,1.492440011021013
7.149428986597577e-06,-0.27050122852466796,1.4911728250537806
7.934096665797492e-06,-0.29226410548739246,1.4896800152059941
8.804883581643465e-06,-0.31520940625530613,1.4879262750638844
9.771241535346501e-06,-0.3393155260127907,1.4858718938188133
1.0843659686896109e-05,-0.36454532599819345,1.4834724469839684
1.2033778407775906e-05,-0.3908443163813571,1.48067851585911
1.3354515629298974e-05,-0.41813885273612517,1.4774354484565904
1.48202070579886e-05,-0.4463343863316549,1.4736831759234392
1.6446761779946626e-05,-0.4753138143036022,1.4693560995872128
1.8251834943190462e-05,-0.5049359813523076,1.4643830645347597
2.0255019392306664e-05,-0.5350343898314609,1.4586874360192563
2.2478058335487252e-05,-0.565416179585247,1.4521872949060077
2.4945081352303165e-05,-0.5958614430262141,1.4447957677426713
2.7682866303920665e-05,-0.6261229418687773,1.436421505818586
3.072112998861759e-05,-0.6559262960297012,1.4269693257386926
3.409285069746814e-05,-0.6849707107134471,1.4163410215380712
3.783462617131933e-05,-0.7129303079796934,1.4044363552486228
4.1987070844439056e-05,-0.7394561225575913,1.3911542291015293
4.659525668664687e-05,-0.7641788145988322,1.3763940382853845
5.170920242896755e-05,-0.7867121417202476,1.3600571984538294
5.7384416483024044e-05,-0.8066572197089492,1.3420488370943908
6.368249944718586e-05,-0.8236075852847833,1.3222796325545594
7.067181273927492e-05,-0.8371550556142573,1.3006677791129715
7.842822061337681e-05,-0.8468963578367976,1.2771410511402257
8.703591361485166e-05,-0.8524404780397745,1.2516389342762149
9.658832241158708e-05,-0.85341665325749,1.2241147868492044
0.00010718913192051276,-0.8494829026996342,1.194537990641542
0.00011895340673703195,-0.8403349661685908,1.1628960467849339
0.0001320088400831418,-0.8257154893032492,1.129196570220916
0.00014649713983072864,-0.8054232677593944,1.0934691349979306
0.0001625755666443795,-0.7793223366756479,1.0557669229277347
0.00018041864093920718,-0.7473506689555265,1.0161681299646124
0.00020022003718155845,-0.7095282270017407,0.974777088413336
0.0002221946860939524,-0.6659640988436593,0.9317250689109845
0.0002465811075822604,-0.6168624421646598,0.8871707344235494
0.0002736439997074672,-0.5625269596313416,0.8413002296681966
0.00030367711180354605,-0.5033636371043713,0.7943269038588704
0.00033700643292719284,-0.4398814935323401,0.7464906832181067
0.0003739937302478798,-0.3726911181609722,0.6980571331801989
0.0004150404757850477,-0.3025008074120876,0.6493162798977614
0.00046059220411451084,-0.230110160377194,0.6005812977761236
0.0005111433483440171,-0.1564010479490605,0.552187215889523
0.0005672426068491978,-0.08232593542726363,0.5044898513502776
0.0006294988990221888,-0.008893610812975794,0.45786523759518793
0.0006985879746785249,0.06284755058685221,0.4127098648205436
0.0007752597488629464,0.13182857217866228,0.3694420410838718
0.000860346441668451,0.1969808154338324,0.3285044980253786
0.0009547716114208065,0.2572584919599876,0.290367729555125
0.001059560179277617,0.31166228808552887,0.25553189769357015
0.0011758495540521582,0.3592635689674921,0.22452151697779618
0.0013049019780144017,0.39922856632733783,0.1978607028935004
0.001448118227674533,0.430841904018223,0.17600945662433637
0.0016070528182616384,0.4535287815277229,0.1592440162198596
0.0017834308769319094,0.4668751199694441,0.14749780988751143
0.0019791668678535573,0.4706449801601025,0.14024492139448663
0.002196385372416547,0.46479458973735177,0.13653412422512418
0.002437444150122222,0.44948236691973875,0.1351881567511441
0.002704959730463137,0.42507440261547913,0.13505189577899168
0.0030018358135755923,0.3921449595985962,0.13516365311280804
0.003331294787934677,0.35147166583760736,0.1348166046484068
0.0036969127071950323,0.30402521642693614,0.13354647808004513
0.00410265810582719,0.2509535516063579,0.13108965349783552
0.004552935074866948,0.1935606429976815,0.12733778556732658
0.00505263106533568,0.13328019153723858,0.12229895545386946
0.005607169938205458,0.07164471325032196,0.11606715649345296
0.006222570836730231,0.010250657036721122,0.10879900360242177
0.006905513520162331,-0.049279644028501934,0.10069604241261645
0.007663410868007463,-0.10533824596913632,0.09199131526943748
0.008504489341802686,-0.15637303220506737,0.08293930180889728
0.009437878277775391,-0.2009291680148806,0.07380871549462155
0.010473708979594508,-0.23768936597542734,0.06487779678518504
0.011623224686798541,-0.2655117378072589,0.05643141137829708
0.01289890261253308,-0.2834640281235181,0.048757800958263355
0.014314589375234785,-0.29085308663751164,0.04213911523867616
0.015885651294280528,-0.28724853722260946,0.03682368930306709
0.01762914118095948,-0.272499743294091,0.0329664290275969
0.01956398343517065,-0.2467453461392637,0.030547296154651703
0.021711179456945052,-0.2104148614063348,0.029329337850093746
0.02409403560239527,-0.16422205297922687,0.028920073213529355
0.026738416158399492,-0.10915005560902102,0.028902561754570972
0.029673024081888724,-0.04642847978004738,0.028939712133789073
0.032929712550971546,0.022497004665410714,0.02881067819889486
0.036543830709572546,0.09600185489819069,0.02840190446392449
0.040554607358408275,0.17232562324062428,0.027683425915684238
0.04500557675700498,0.24961950862019933,0.026685699079993977
0.0499450511585514,0.3259971177453167,0.025480729036257345
0.05542664520663107,0.3995869296421546,0.024166654524606056
0.06150985788580504,0.46858487269358307,0.022853741049436393
0.06826071834272393,0.5313053913547634,0.021649799502864
0.0757525025877192,0.586229402617974,0.020644281278323455
0.08406652885618333,0.6320476205106615,0.01989282212931427
0.09329304026284696,0.6676978586207412,0.019407118250706682
0.10353218432956637,0.6923951021547339,0.019155378963522672
0.11489510001873086,0.705653366559261,0.019074348354289682
0.1275051240713013,0.7072986218072828,0.019087662817798
0.1414991297434576,0.6974723510063541,0.019123126262532195
0.15702901247293774,0.6766256189046942,0.019124241726251708
0.17426333860096507,0.645503839107775,0.01905532148233009
0.19338917504552322,0.605122737131893,0.01890182432165983
0.21461411978584058,0.5567362984669728,0.01866777862622792
0.23816855519761607,0.5017977559713529,0.018371634476338057
0.2643081486974108,0.4419148993877826,0.018041313006103225
0.29331662783900486,0.3788011731812162,0.017708910105587467
0.32550885998350565,0.31422416053776203,0.01740545527806784
0.36123426997094304,0.24995312659484625,0.017156237426267013
0.40088063288984643,0.18770731011710495,0.016977361292223443
0.4448782831127585,0.12910660972396215,0.01687413493823218
0.4937047852839004,0.0756262103143257,0.016841504070437694
0.5478901179593945,0.028556541703423477,0.016866246689497346
0.6080224261649427,-0.011030239120586316,0.01693017528294577
0.67475440531107,-0.04230629045534329,0.017013436255322523
0.748810385759003,-0.06470597082390839,0.01709731301007761
0.8309941949353403,-0.0779351730915323,0.017166175803528295
0.9221978823334341,-0.08197201176973579,0.017208665315853622
1.0234114021054528,-0.07705906223310421,0.01721827437754525
1.135733358343105,-0.06368763180704207,0.017193572411380177
1.2603829296797273,-0.042574800382055855,0.017138259716246003
1.3987131026472386,-0.014634193348356916,0.017061047540063365
1.552225357427048,0.01905836526316307,0.016975296837969684
1.7225859653987874,0.057303032352365335,0.016898195679670564
1.9116440753857036,0.09881658153892658,0.016849257248589714
2.121451784910632,0.14227408092912697,0.016847984979985714
2.35428641432242,0.18635021238023342,0.016910778647165833
2.612675225563332,0.22975889490032841,0.01704758440528574
2.8994228538828812,0.2712899833186384,0.01725903425404641
3.2176417502507353,0.30984196164575906,0.01753495222698254
3.5707859649004625,0.34444973165210513,0.017854830559754037
3.9626886387014784,0.3743068031783139,0.018190320177715602
4.397603609302721,0.39878141493255725,0.018509291645660803
4.880251583654434,0.4174263440785069,0.01878084202191455
5.415871378079476,0.42998239096289126,0.018980614293306188
6.010276782070388,0.4363757434413458,0.01909600035675529
6.669919663030129,0.4367096257684011,0.019130775525068436
7.401959996915652,0.43125081327883663,0.01910869926279517
8.214343584919439,0.4204117407030594,0.01907498607184018
9.115888299750837,0.4047290449416039,0.0190940996870104
10.11637979766207,0.38483945995449176,0.019241907533440055
11.226677735108158,0.3614540211445103,0.019591301255986404
12.458833642950081,0.33533153973306185,0.020193620443748863
13.826221737646593,0.3072522760532479,0.021062178380473057
15.343684089300131,0.27799267753931645,0.022165087841974535
17.02769172225898,0.24830195667482258,0.023429973993873705
18.896523396912116,0.21888117128511908,0.024757213111137343
20.970464013232306,0.19036533985945425,0.02603601236376061
23.27202478960412,0.16330898398899762,0.027159764598571674
25.826187606826746,0.138175344431545,0.028040186493799413
28.66067616948256,0.11532937252380293,0.028621674843327224
31.80625692794119,0.095034460012414,0.028898030118440974
35.297073027306574,0.07745274263433544,0.02893330016924466
39.17101490809261,0.06264869996329026,0.02888614035335286
43.47013158125035,0.05059567930975106,0.029029812663980723
48.241087041653735,0.0411848970777271,0.029745347834798323
53.535666774107185,0.03423641822672607,0.03145524947028562
59.411339849650396,0.02951158372871987,0.0344970822046637
65.93188271333541,0.026726346644096566,0.03901217805025923
73.16807143427206,0.025564988367506203,0.04493330740450846
81.19844993184009,0.02569371571185286,0.05205448597978122
90.11018251665037,0.026773684315159585,0.060107107910686096
100.0,0.028473051399558358,0.06880433344124408
