tau,gamma,sigma_gamma
1e-07,6.064434943679124e-07,0.4631852983116708
1.1097524964120721e-07,6.730021818773003e-07,0.4631852982922007
1.2315506032928263e-07,7.468658515242976e-07,0.46318529826822225
1.3667163564620074e-07,8.28836243339284e-07,0.4631852982386916
1.5167168884709241e-07,9.198030903402371e-07,0.46318529820232307
1.6831803533309585e-07,1.0207537759570034e-06,0.46318529815753345
1.867913599020781e-07,1.1327840514222894e-06,0.46318529810237274
2.0729217795953698e-07,1.2571099294155342e-06,0.4631852980344395
2.300430119772917e-07,1.3950808830535399e-06,0.4631852979507763
2.5529080682395163e-07,1.548194493516049e-06,0.4631852978477409
2.833096101839324e-07,1.718112705269406e-06,0.4631852977208475
3.1440354715915e-07,1.906679865373761e-06,0.46318529756457183
3.489101213406774e-07,2.1159427426175147e-06,0.4631852973721105
3.872038781812557e-07,2.348172743842585e-06,0.4631852971350846
4.2970047043208437e-07,2.6058905685329332e-06,0.46318529684317533
4.768611697714474e-07,2.8918935693307012e-06,0.4631852964836741
5.291978735958437e-07,3.2092861154742246e-06,0.46318529604093034
5.872786613189477e-07,3.561513288667743e-06,0.4631852954956689
6.517339604882421e-07,3.952398277208257e-06,0.4631852948241518
7.232633896483533e-07,4.386183874223676e-06,0.4631852939971446
8.026433522257174e-07,4.867578530483088e-06,0.46318529297864336
8.907354638610439e-07,5.401807461693264e-06,0.46318529172430756
9.884959046625586e-07,5.994669364964671e-06,0.46318529017952953
1.096985797892384e-06,6.652599360193614e-06,0.4631852882770573
1.217382727739662e-06,7.382738839529005e-06,0.4631852859340665
1.3509935211980278e-06,8.193012983162133e-06,0.46318528304855483
1.499268432786047e-06,9.09221678290734e-06,0.46318527949490135
1.6638168860761274e-06,1.0090110507432584e-05,0.46318527511839735
1.8464249428955464e-06,1.1197525645432029e-05,0.4631852697285115
2.049074689815846e-06,1.24264824770118e-05,0.4631852630905947
2.2739657523579273e-06,1.3790320549591335e-05,0.46318525491566487
2.523539170434766e-06,1.5303843475032697e-05,0.46318524484782597
2.800503894183631e-06,1.6983479620193804e-05,0.4631852324487742
3.107866187782014e-06,1.8847460435736905e-05,0.4631852171787165
3.4489622604057595e-06,2.091601835992594e-05,0.46318519837287087
3.827494478516315e-06,2.321160644682454e-05,0.46318517521252484
4.247571552536894e-06,2.575914210466764e-05,0.46318514668939376
4.713753134116729e-06,2.8586277592530058e-05,0.4631851115617251
5.2310993080562585e-06,3.172370021483522e-05,0.46318506830023964
5.805225516094895e-06,3.520546547683802e-05,0.4631850150215556
6.44236350872137e-06,3.906936682368967e-05,0.4631849494061972
7.149428986597577e-06,4.335734598516928e-05,0.46318486859761915
7.934096665797492e-06,4.811594839218103e-05,0.4631847690778513
8.804883581643465e-06,5.3396828624721615e-05,0.4631846465143505
9.771241535346501e-06,5.925731140010086e-05,0.46318449557139313
1.0843659686896109e-05,6.576101422142125e-05,0.46318430967780044
1.2033778407775906e-05,7.297853848669536e-05,0.46318408074088524
1.3354515629298974e-05,8.09882366177015e-05,0.4631837987941734
1.48202070579886e-05,8.98770636138125e-05,0.46318345156356794
1.6446761779946626e-05,9.974152238111621e-05,0.46318302393308025
1.8251834943190462e-05,0.00011068871324460602,0.46318249728688216
2.0255019392306664e-05,0.00012283749923568425,0.4631818486990597
2.2478058335487252e-05,0.00013631980007743896,0.4631810499358269
2.4945081352303165e-05,0.0001512820292876721,0.4631800662268143
2.7682866303920665e-05,0.0001678866905102626,0.46317885475201837
3.072112998861759e-05,0.00018631415110147457,0.4631773627786615
3.409285069746814e-05,0.00020676461317827802,0.46317552536703216
3.783462617131933e-05,0.00022946030482902738,0.463173262545704
4.1987070844439056e-05,0.0002546479170556504,0.4631704758335764
4.659525668664687e-05,0.00028260131533713005,0.46316704395795555
5.170920242896755e-05,0.0003136245585782446,0.46316281758322597
5.7384416483024044e-05,0.00034805526276386004,0.46315761282208184
6.368249944718586e-05,0.00038626835204653986,0.4631512032490422
7.067181273927492e-05,0.0004286802464751032,0.46314331007191073
7.842822061337681e-05,0.0004757535434162831,0.46313359003837945
8.703591361485166e-05,0.0005280022593181256,0.4631216205590003
9.658832241158708e-05,0.0005859977103262626,0.46310688141054057
0.00010718913192051276,0.0006503751250823836,0.4630887322408955
0.00011895340673703195,0.0007218411017252541,0.46306638492308927
0.0001320088400831418,0.000801182044912906,0.46303886959549156
0.00014649713983072864,0.0008892737492387504,0.463004992971471
0.0001625755666443795,0.000987092334936969,0.4629632871968952
0.00018041864093920718,0.00109572679322361,0.46291194717042317
0.00020022003718155845,0.0012163934659491157,0.4628487538119191
0.0002221946860939524,0.001350452872704959,0.4627709802624026
0.0002465811075822604,0.0014994294150987991,0.46267527742177245
0.0002736439997074672,0.001665034641750364,0.4625575345813556
0.00030367711180354605,0.00184919496062462,0.46241271020141117
0.00033700643292719284,0.0020540849530152616,0.4622346271518415
0.0003739937302478798,0.002282167795352112,0.4620157260403391
0.0004150404757850477,0.0025362447552229536,0.46174676970611955
0.00046059220411451084,0.00281951632551751,0.4614164917423393
0.0005111433483440171,0.0031356583282332595,0.46101118231958205
0.0005672426068491978,0.0034889172910830546,0.460514206073071
0.0006294988990221888,0.0038842306039986174,0.4599054500809367
0.0006985879746785249,0.004327378408985089,0.4591607060280119
0.0007752597488629464,0.004825175833444689,0.4582510010052424
0.000860346441668451,0.005385715928098736,0.45714190812438366
0.0009547716114208065,0.006018675246339533,0.45579289405027057
0.001059560179277617,0.006735694865913022,0.454156799285809
0.0011758495540521582,0.007550848828852985,0.4521796028678549
0.0013049019780144017,0.008481207785442146,0.44980070040435854
0.001448118227674533,0.009547495341935358,0.4469540260720707
0.0016070528182616384,0.010774813996300231,0.44357047379906583
0.0017834308769319094,0.012193380388285602,0.43958220865350406
0.0019791668678535573,0.013839147373487015,0.4349295746934992
0.002196385372416547,0.01575409255589663,0.4295713333142272
0.002437444150122222,0.01798580817355233,0.4234987843991234
0.002704959730463137,0.02058582766731959,0.41675373480260697
0.0030018358135755923,0.023605872834964292,0.4094490142749763
0.003331294787934677,0.027090928869124287,0.40178801978629686
0.0036969127071950323,0.031067821133247464,0.3940765299031597
0.00410265810582719,0.03552790681605217,0.3867163992735153
0.004552935074866948,0.04040280906768873,0.3801687499381363
0.00505263106533568,0.04553307218317726,0.3748777147490699
0.005607169938205458,0.050631460897586855,0.3711587189722977
0.006222570836730231,0.05524548636196591,0.3690772870322991
0.006905513520162331,0.05872740891225925,0.36836510318063953
0.007663410868007463,0.060223711084734566,0.36842193252938277
0.008504489341802686,0.05869851587212227,0.3684254680387214
0.009437878277775391,0.053004893218348115,0.36752808651901453
0.010473708979594508,0.042012849128071905,0.36508446121433197
0.011623224686798541,0.024792428835772595,0.3608420017994235
0.01289890261253308,0.0008360139892855667,0.3550347669289103
0.014314589375234785,-0.029711129333586883,0.3483426944343719
0.015885651294280528,-0.06585398391519126,0.34171006113995217
0.01762914118095948,-0.10562903891495368,0.3360633654089751
0.01956398343517065,-0.14609993128440502,0.3320219830392406
0.021711179456945052,-0.18348613457390006,0.3297216731065744
0.02409403560239527,-0.21342089450189505,0.3288305278272416
0.026738416158399492,-0.2313133325913478,0.32873743582111375
0.029673024081888724,-0.23277470311185222,0.32880715898088836
0.032929712550971546,-0.21406263650512836,0.32858568889892686
0.036543830709572546,-0.17249916178604252,0.32789228009789073
0.040554607358408275,-0.10682552699181791,0.3267974031969219
0.04500557675700498,-0.017465826379450267,0.32552532198217315
0.0499450511585514,0.093320711357884,0.3243329490393297
0.05542664520663107,0.221413842633019,0.3234107457806108
0.06150985788580504,0.3609456313378123,0.32283333488024646
0.06826071834272393,0.5045645731018289,0.3225638456825793
0.0757525025877192,0.6438586305043934,0.3224956887333936
0.08406652885618333,0.7699353608347694,0.3225061587785396
0.09329304026284696,0.8741379215175593,0.3224994894274183
0.10353218432956637,0.9488473097138588,0.32242777503131587
0.11489510001873086,0.9882891573310619,0.32228965786533204
0.1275051240713013,0.9892375279074503,0.3221142796183371
0.1414991297434576,0.9514994094510469,0.3219404870637834
0.15702901247293774,0.8780796429321738,0.32179966315925757
0.17426333860096507,0.7749675977196984,0.3217067144199863
0.19338917504552322,0.650546809605173,0.32165960614133127
0.21461411978584058,0.5146940697121671,0.3216448466194888
0.23816855519761607,0.3776904503585259,0.321645143933814
0.2643081486974108,0.24910127486465639,0.3216459418978084
0.29331662783900486,0.1367880361698144,0.3216389916972214
0.32550885998350565,0.04619183223519041,0.32162271805960596
0.36123426997094304,-0.020020063364340146,0.3216002966777079
0.40088063288984643,-0.061915686792140434,0.32157682987485897
0.4448782831127585,-0.0819042335567488,0.32155685888669183
0.4937047852839004,-0.08407717875573173,0.32154293370294895
0.5478901179593945,-0.07340960800187579,0.32153536574537855
0.6080224261649427,-0.05495540929983078,0.3215328399534254
0.67475440531107,-0.03315474464064683,0.321533368456786
0.748810385759003,-0.011339369824047818,0.3215351179580754
0.8309941949353403,0.008520400767577763,0.32153684795775916
0.9221978823334341,0.02582549902450315,0.32153794052569734
1.0234114021054528,0.041149029233069845,0.3215381855669168
1.135733358343105,0.055887800484507366,0.32153755333494766
1.2603829296797273,0.07183590931789974,0.3215361335006184
1.3987131026472386,0.09075058660343194,0.3215342848302377
1.552225357427048,0.11396877970380004,0.3215328847652754
1.7225859653987874,0.1421157417568102,0.32153346302790337
1.9116440753857036,0.17493007851218279,0.3215380019538846
2.121451784910632,0.21121731180195935,0.3215483088959817
2.35428641432242,0.2489362327731448,0.3215650858604192
2.612675225563332,0.2854154069437431,0.32158706206992643
2.8994228538828812,0.31768606838315705,0.3216107052032425
3.2176417502507353,0.34289973991647393,0.32163097588255757
3.5707859649004625,0.3587770171455036,0.3216432773771672
3.9626886387014784,0.3640158751532008,0.3216462176685451
4.397603609302721,0.3585828446538146,0.3216442065826854
4.880251583654434,0.3438241220809388,0.32164852073455347
5.415871378079476,0.32236470755218516,0.32167557194522245
6.010276782070388,0.2978036035458844,0.32174189824942123
6.669919663030129,0.27425023809005555,0.32185680372972786
7.401959996915652,0.25577176691463954,0.32201520022201485
8.214343584919439,0.2458287694684813,0.32219432722085173
9.115888299750837,0.24677072962388902,0.32235783400568885
10.11637979766207,0.25944936280912145,0.32246869820478313
11.226677735108158,0.2829939896848561,0.32250882098844225
12.458833642950081,0.31478166520554485,0.3224989162175941
13.826221737646593,0.3506235910552782,0.32250920829042096
15.343684089300131,0.38517328307348464,0.3226514555022039
17.02769172225898,0.4125365745952023,0.32304755139613217
18.896523396912116,0.4270288832061486,0.32377962065689725
20.970464013232306,0.4239875440747265,0.32483846555781976
23.27202478960412,0.4005175040774924,0.32609550853892616
25.826187606826746,0.35603916564867943,0.32732133502453037
28.66067616948256,0.2925255652804952,0.3282591091058363
31.80625692794119,0.21436274155999957,0.328738176793169
35.297073027306574,0.12783404456605796,0.3287910146276483
39.17101490809261,0.040301739988364504,0.32872328618017876
43.47013158125035,-0.04077949725207919,0.3290882995115854
48.241087041653735,-0.10884775032282168,0.33054112049339296
53.535666774107185,-0.15904878698507563,0.33359928760565627
59.411339849650396,-0.18874832318204215,0.33840162978467214
65.93188271333541,-0.19767321635188573,0.34458716169710546
73.16807143427206,-0.18768925988852514,0.3513688269368595
81.19844993184009,-0.16229281941170326,0.3577742147551028
90.11018251665037,-0.1259401571231744,0.362946106134961
100.0,-0.08335246176744349,0.36638835420762256
