tau,gamma,sigma_gamma
1e-07,0.002023262162515759,1.4914174891512826
1.1097524964120721e-07,0.0022450071359673665,1.4914172948535425
1.2315506032928263e-07,0.00249099813961296,1.4914170557022024
1.3667163564620074e-07,0.002763870743822832,1.4914167613683165
1.5167168884709241e-07,0.003066542943925524,1.4914163991545082
1.6831803533309585e-07,0.0034022444145521205,1.4914159534558027
1.867913599020781e-07,0.0037745485565516277,1.491415405099183
2.0729217795953698e-07,0.004187407553989753,1.4914147305351273
2.300430119772917e-07,0.004645190644251314,1.4914139008486647
2.5529080682395163e-07,0.005152725847154354,1.4914128805506215
2.833096101839324e-07,0.005715345336252859,1.4914116261015002
3.1440354715915e-07,0.006338934740819347,1.4914100841105227
3.489101213406774e-07,0.007029986387322997,1.4914081891407711
3.872038781812557e-07,0.007795656973513303,1.491405861037092
4.2970047043208437e-07,0.008643829517617111,1.4914030016772357
4.768611697714474e-07,0.00958317988879783,1.491399491026888
5.291978735958437e-07,0.010623247924953519,1.4913951823564506
5.872786613189477e-07,0.01177451316452471,1.4913898964505503
6.517339604882421e-07,0.013048475115962587,1.4913834146100569
7.232633896483533e-07,0.014457737922748086,1.491375470210271
8.026433522257174e-07,0.016016099147010986,1.4913657385374492
8.907354638610439e-07,0.017738642275008466,1.4913538245784403
9.884959046625586e-07,0.01964183239759646,1.4913392483845462
1.096985797892384e-06,0.021743614323433073,1.4913214275704574
1.217382727739662e-06,0.024063512190655157,1.491299656442127
1.3509935211980278e-06,0.026622729399819373,1.4912730811738293
1.499268432786047e-06,0.0294442474265147,1.4912406703747947
1.6638168860761274e-06,0.032552921779327997,1.4912011803005951
1.8464249428955464e-06,0.03597557303885284,1.4911531138751657
2.049074689815846e-06,0.03974107055934145,1.4910946725980554
2.2739657523579273e-06,0.0438804060348235,1.4910237003209834
2.523539170434766e-06,0.04842675371287642,1.4909376177917273
2.800503894183631e-06,0.05341551362325592,1.4908333467866453
3.107866187782014e-06,0.05888433373510908,1.4907072225916258
3.4489622604057595e-06,0.06487310651170841,1.4905548935522566
3.827494478516315e-06,0.07142393488383386,1.4903712064060515
4.247571552536894e-06,0.07858106223073213,1.4901500761425157
4.713753134116729e-06,0.08639076055982263,1.4898843392217291
5.2310993080562585e-06,0.0949011707137458,1.489565589130971
5.805225516094895e-06,0.10416208814909067,1.4891839934843545
6.44236350872137e-06,0.11422468763153062,1.4887280921851744
7.149428986597577e-06,0.12514118007763675,1.4881845765869102
7.934096665797492e-06,0.13696439485350112,1.4875380501172661
8.804883581643465e-06,0.14974728100333823,1.4867707714786595
9.771241535346501e-06,0.16354232130894464,1.485862382312951
1.0843659686896109e-05,0.17840085368072045,1.4847896221180292
1.2033778407775906e-05,0.19437229524834465,1.483526034223177
1.3354515629298974e-05,0.21150326565378258,1.4820416677559884
1.48202070579886e-05,0.22983660748880108,1.4803027817448873
1.6446761779946626e-05,0.24941030356341404,1.478271558768373
1.8251834943190462e-05,0.2702562927856633,1.475905836846325
2.0255019392306664e-05,0.292399188857235,1.4731588695230864
2.2478058335487252e-05,0.3158549087748366,1.4699791252617305
2.4945081352303165e-05,0.34062922111377203,1.4663101382935626
2.7682866303920665e-05,0.3667162278410304,1.4620904238816739
3.072112998861759e-05,0.39409679639420114,1.4572534714975771
3.409285069746814e-05,0.4227369635185112,1.4517278296117127
3.783462617131933e-05,0.452586335747864,1.4454372956052763
4.1987070844439056e-05,0.483576515899802,1.4383012236736181
4.659525668664687e-05,0.5156195889729893,1.4302349624746042
5.170920242896755e-05,0.5486067048595229,1.4211504326578013
5.7384416483024044e-05,0.5824067989862189,1.4109568522883498
6.368249944718586e-05,0.6168654953373882,1.3995616155674568
7.067181273927492e-05,0.6518042390529812,1.3868713271829693
7.842822061337681e-05,0.6870197078216964,1.3727929911505006
8.703591361485166e-05,0.7222835524078373,1.357235349197592
9.658832241158708e-05,0.7573425166984151,1.3401103596860364
0.00010718913192051276,0.7919189864650891,1.3213348038600894
0.00011895340673703195,0.8257120134531171,1.300832001963207
0.0001320088400831418,0.858398857291232,1.278533617604225
0.00014649713983072864,0.88963708195686,1.2543815248066559
0.0001625755666443795,0.9190672360643095,1.2283297085781228
0.00018041864093920718,0.9463161369857414,1.2003461667343522
0.00020022003718155845,0.9710007678416654,1.1704147782525154
0.0002221946860939524,0.9927327837097164,1.138537101763991
0.0002465811075822604,1.011123609158913,1.104734067089946
0.0002736439997074672,1.0257900935912247,1.0690475231433676
0.00030367711180354605,1.0363606741228106,1.0315416072491614
0.00033700643292719284,1.0424819781820727,0.9923039041765085
0.0003739937302478798,1.0438257800312067,0.9514463681578621
0.0004150404757850477,1.0400962074810094,0.9091059881640596
0.00046059220411451084,1.0310370776718893,0.8654451860375503
0.0005111433483440171,1.0164392244902203,0.8206519491492785
0.0005672426068491978,0.9961476655647012,0.7749397145290139
0.0006294988990221888,0.9700684444470946,0.7285470404497986
0.0006985879746785249,0.938174974132536,0.6817371247437723
0.0007752597488629464,0.9005137021040275,0.6347972568917648
0.000860346441668451,0.8572089151419391,0.5880383223623155
0.0009547716114208065,0.80846650470572,0.54179450934501
0.001059560179277617,0.7545765211720941,0.4964233902550801
0.0011758495540521582,0.695914357891402,0.4523065395802693
0.0013049019780144017,0.6329404240608127,0.4098507528177353
0.001448118227674533,0.5661981888274674,0.3694896376281795
0.0016070528182616384,0.49631050766316775,0.3316846456597784
0.0017834308769319094,0.423974175582436,0.2969231507481301
0.0019791668678535573,0.34995268968190985,0.2657085469104844
0.002196385372416547,0.27506724507868086,0.23853359660471013
0.002437444150122222,0.20018603274422198,0.21582545964938754
0.002704959730463137,0.1262119539328097,0.1978552523933601
0.0030018358135755923,0.054068912713038486,0.18462554189507127
0.003331294787934677,-0.0153131057742808,0.1757832690144643
0.0036969127071950323,-0.08101391966887306,0.1706210117331921
0.00410265810582719,-0.1421397051593658,0.1681888744176735
0.004552935074866948,-0.19783989387946654,0.16746693688104242
0.00505263106533568,-0.24732405587757356,0.16751856239350169
0.005607169938205458,-0.2898783894626593,0.16757891741803943
0.006222570836730231,-0.3248814263521176,0.16708103645631123
0.006905513520162331,-0.3518185573981931,0.16564380540641063
0.007663410868007463,-0.3702949914620346,0.16304444542254648
0.008504489341802686,-0.38004677817034604,0.15918873025831184
0.009437878277775391,-0.38094955446500567,0.1540845466285502
0.010473708979594508,-0.3730247148120647,0.1478202443046128
0.011623224686798541,-0.3564427551332727,0.14054747944152887
0.01289890261253308,-0.3315236000114119,0.13246772646972663
0.014314589375234785,-0.2987337902823075,0.12382156214530267
0.015885651294280528,-0.25868048214459627,0.11487980674766056
0.01762914118095948,-0.21210228755871263,0.10593541223020606
0.01956398343517065,-0.15985706685130907,0.0972944614573546
0.021711179456945052,-0.10290686582701625,0.0892637505537429
0.02409403560239527,-0.0423002689153229,0.08213154104013987
0.026738416158399492,0.02084748546045745,0.07613850419939791
0.029673024081888724,0.08537621340853008,0.0714399949555364
0.032929712550971546,0.150103845601393,0.06806968360637086
0.036543830709572546,0.2138503191814891,0.0659230006498223
0.040554607358408275,0.2754617476627459,0.06477540316919676
0.04500557675700498,0.3338342951198854,0.0643319174092709
0.0499450511585514,0.3879371765417652,0.06428650433421736
0.05542664520663107,0.4368342177509845,0.0643692279857263
0.06150985788580504,0.4797034358086236,0.06437219421847337
0.06826071834272393,0.5158541438719837,0.06415716244294671
0.0757525025877192,0.544741142084959,0.0636519253391894
0.08406652885618333,0.5659756268174512,0.06284139797995697
0.09329304026284696,0.5793325325266707,0.061756808853325566
0.10353218432956637,0.5847541114265269,0.060464374978299575
0.11489510001873086,0.5823496534062258,0.05905372444637378
0.1275051240713013,0.5723913494027375,0.057625921607292754
0.1414991297434576,0.5553064027294319,0.05628107971687887
0.15702901247293774,0.5316655916573616,0.05510609038279367
0.17426333860096507,0.5021685798720554,0.054163766469232426
0.19338917504552322,0.4676263564764156,0.053485278405100624
0.21461411978584058,0.42894126141450073,0.05306765275251958
0.23816855519761607,0.38708511334032814,0.05287704947695282
0.2643081486974108,0.34307600324211585,0.052856938001934056
0.29331662783900486,0.2979543472445272,0.05293899891581682
0.32550885998350565,0.2527588051357519,0.05305423382384326
0.36123426997094304,0.20850266705971698,0.05314233558993321
0.40088063288984643,0.16615128977607085,0.053158325043753354
0.4448782831127585,0.12660112674900859,0.05307627370095739
0.4937047852839004,0.09066084444087608,0.05289037837206145
0.5478901179593945,0.05903495233767586,0.052613782190423106
0.6080224261649427,0.03231029861099799,0.052275498069369035
0.67475440531107,0.010945699413262844,0.05191573987636457
0.748810385759003,-0.004735119693638268,0.051580001864975446
0.8309941949353403,-0.01454718393121368,0.05131239077047662
0.9221978823334341,-0.01844453705100335,0.0511489727177856
1.0234114021054528,-0.016517211892463024,0.051112127268193
1.135733358343105,-0.008985082895733854,0.05120693585471036
1.2603829296797273,0.003811144198280658,0.051420349481566596
1.3987131026472386,0.021421483944443764,0.05172331681854586
1.552225357427048,0.04330038773490941,0.052075416537005766
1.7225859653987874,0.06882220675570494,0.05243108208581384
1.9116440753857036,0.09729795405957731,0.05274637283421381
2.121451784910632,0.1279929034020597,0.05298538738021222
2.35428641432242,0.16014456098208996,0.05312567742650539
2.612675225563332,0.19298055769837674,0.05316224605293828
2.8994228538828812,0.22573603299642286,0.05310982029244508
3.2176417502507353,0.25767011553882213,0.05300307687949302
3.5707859649004625,0.28808114919351624,0.05289443726108201
3.9626886387014784,0.31632036341488146,0.052849064950708305
4.397603609302721,0.34180374306406236,0.052936950910299055
4.880251583654434,0.36402191209988644,0.05322258902284184
5.415871378079476,0.38254790638863767,0.053753668707818364
6.010276782070388,0.39704277125115084,0.05455106890834078
6.669919663030129,0.40725897752253104,0.05560265067686676
7.401959996915652,0.41304170429533826,0.05686253783109268
8.214343584919439,0.41432808581022584,0.05825603962504248
9.115888299750837,0.4111445630901329,0.059688924720712244
10.11637979766207,0.40360251709351047,0.06105911439963463
11.226677735108158,0.391892388884969,0.0622691178621493
12.458833642950081,0.37627651336944723,0.06323826131730759
13.826221737646593,0.3570809065481484,0.06391446551958835
15.343684089300131,0.3346862523179652,0.0642857035073902
17.02769172225898,0.3095183340410017,0.06439117611913057
18.896523396912116,0.28203814912799885,0.0643315462752914
20.970464013232306,0.25273193250383486,0.0642760676348863
23.27202478960412,0.22210129795263356,0.06446208431419888
25.826187606826746,0.19065368590990772,0.0651800752720305
28.66067616948256,0.15889328324018948,0.06673809313331483
31.80625692794119,0.12731255583332768,0.06940715512236804
35.297073027306574,0.09638450935747755,0.07336309380802732
39.17101490809261,0.06655576800240226,0.07864904439457737
43.47013158125035,0.03824053624100543,0.08517356216927445
48.241087041653735,0.011815485106545509,0.09273844392350754
53.535666774107185,-0.012384417308325624,0.1010776134030801
59.411339849650396,-0.03406913113509091,0.1098916116345479
65.93188271333541,-0.05299584320252393,0.11887207438171432
73.16807143427206,-0.06897037108917914,0.12771749562705031
81.19844993184009,-0.08184771767928112,0.13614374816822072
90.11018251665037,-0.09153183130801068,0.14389243744449842
100.0,-0.09797463448069976,0.1507391835919366
