tau,gamma,sigma_gamma
1e-07,-0.0318033636990549,0.08555260552676888
1.1097524964120721e-07,-0.03802440355707404,0.07151087723224542
1.2315506032928263e-07,-0.04215057093801988,0.05863346641223126
1.3667163564620074e-07,-0.04415978662677844,0.04748902299154076
1.5167168884709241e-07,-0.0441167387969017,0.03864217740855332
1.6831803533309585e-07,-0.042169771081717045,0.032537048323141055
1.867913599020781e-07,-0.038543599598824585,0.029203461643248697
2.0729217795953698e-07,-0.033528106482208386,0.028009678106770325
2.300430119772917e-07,-0.027463692286119112,0.02791374464453788
2.5529080682395163e-07,-0.020723887736039615,0.02799393608366785
2.833096101839324e-07,-0.013696113862579296,0.027696478797470118
3.1440354715915e-07,-0.006761622096519204,0.026796637731256692
3.489101213406774e-07,-0.0002757329145879339,0.02529163598953019
3.872038781812557e-07,0.005450487538382731,0.02331640829115694
4.2970047043208437e-07,0.010166023704641702,0.021088755457148646
4.768611697714474e-07,0.013692211059606052,0.01887027903871345
5.291978735958437e-07,0.015930760970150004,0.01692670768835752
5.872786613189477e-07,0.016866975959601405,0.015471616710218518
6.517339604882421e-07,0.016567911822221504,0.014595328739484024
7.232633896483533e-07,0.015175560194165882,0.014224283078824741
8.026433522257174e-07,0.012895449404368264,0.014162733851615332
8.907354638610439e-07,0.009981364129998838,0.014190180436564588
9.884959046625586e-07,0.006717165123063751,0.014138238658917397
1.096985797892384e-06,0.0033968879188250867,0.013918008743605277
1.217382727739662e-06,0.00030444766980508575,0.013514899129078255
1.3509935211980278e-06,-0.002305680409335764,0.012971416889639547
1.499268432786047e-06,-0.004225479191063641,0.012366753316528006
1.6638168860761274e-06,-0.0053069224563842,0.01179338765877733
1.8464249428955464e-06,-0.005471067282087461,0.011332099379402322
2.049074689815846e-06,-0.004712053808361816,0.01102801655672302
2.2739657523579273e-06,-0.0030957197086536326,0.010878544083439743
2.523539170434766e-06,-0.0007529235849688121,0.010839607235041567
2.800503894183631e-06,0.0021319369402590382,0.010847231454294788
3.107866187782014e-06,0.005336363464266469,0.010841079866581074
3.4489622604057595e-06,0.008617994867563539,0.010780770889766365
3.827494478516315e-06,0.011734259676359216,0.010651947718144176
4.247571552536894e-06,0.014461931500136416,0.010464603569277201
4.713753134116729e-06,0.016615060927961167,0.010246270572680133
5.2310993080562585e-06,0.018059862064546905,0.010032235976184465
5.805225516094895e-06,0.018725348564657907,0.009854585397795615
6.44236350872137e-06,0.018608831563142303,0.009732939929155186
7.149428986597577e-06,0.01777578664905377,0.009669496044652955
7.934096665797492e-06,0.016354041571048583,0.009650481284729971
8.804883581643465e-06,0.014522694969400618,0.009652641023859617
9.771241535346501e-06,0.012496615957388713,0.009651873843150364
1.0843659686896109e-05,0.010507754082937026,0.009630194299595262
1.2033778407775906e-05,0.00878478173081021,0.009579818534861244
1.3354515629298974e-05,0.007532765790983831,0.009503439517477452
1.48202070579886e-05,0.006914605942711205,0.00941203994361243
1.6446761779946626e-05,0.007035875099973055,0.009320681264621202
1.8251834943190462e-05,0.007934456693419634,0.009243286924074771
2.0255019392306664e-05,0.009576008477552023,0.009189032466014727
2.2478058335487252e-05,0.011855818795766027,0.009159664491532197
2.4945081352303165e-05,0.014607094256689379,0.009150120349319384
2.7682866303920665e-05,0.017615168417023597,0.00915071097404801
3.072112998861759e-05,0.02063659304030807,0.009150875453199096
3.409285069746814e-05,0.023421614682092695,0.009142222059232262
3.783462617131933e-05,0.025738187167462456,0.009120666387964653
4.1987070844439056e-05,0.027395460668230953,0.00908706982188561
4.659525668664687e-05,0.02826464419695185,0.009046093028463308
5.170920242896755e-05,0.02829526985897246,0.009004552673690028
5.7384416483024044e-05,0.027525191874246957,0.008968946755553736
6.368249944718586e-05,0.026083111966954675,0.0089435088036492
7.067181273927492e-05,0.024183005820077597,0.008929520211321219
7.842822061337681e-05,0.02211048839058094,0.0089246611698471
8.703591361485166e-05,0.020201847030648423,0.008924792658086966
9.658832241158708e-05,0.01881713742932334,0.008925018287824164
0.00010718913192051276,0.018309318669594177,0.00892139246524738
0.00011895340673703195,0.01899184985506963,0.008911917986272179
0.0001320088400831418,0.021107440019591195,0.008896831340383464
0.00014649713983072864,0.024800701231811217,0.008878251774826313
0.0001625755666443795,0.030097291885908817,0.008859392611040117
0.00018041864093920718,0.03689175396095834,0.008843057258480799
0.00020022003718155845,0.04494563791058681,0.008831454606517478
0.0002221946860939524,0.053896849731359,0.008824951166665759
0.0002465811075822604,0.06328011751588747,0.008822799546346351
0.0002736439997074672,0.07255779329705092,0.008822832964415597
0.00030367711180354605,0.08115914537552271,0.008822970336938461
0.00033700643292719284,0.0885255975971404,0.008821471562972376
0.0003739937302478798,0.09415871980911561,0.008817375794535207
0.0004150404757850477,0.09766736733729431,0.008811095739123448
0.00046059220411451084,0.09881021700778092,0.008803526359245313
0.0005111433483440171,0.09753007985602835,0.008795953982203088
0.0005672426068491978,0.09397678795085085,0.008789811479492812
0.0006294988990221888,0.08851613562183047,0.008785689023189243
0.0006985879746785249,0.0817232623169275,0.008783618956191046
0.0007752597488629464,0.07435993631588644,0.008783057044656936
0.000860346441668451,0.06733636075307459,0.00878327377807892
0.0009547716114208065,0.06165929259952918,0.008783300180450967
0.001059560179277617,0.0583693536368628,0.00878272358529155
0.0011758495540521582,0.058471336888032965,0.008781496386854857
0.0013049019780144017,0.06286199744693022,0.008780057108060681
0.001448118227674533,0.07226020508323927,0.008778929435176117
0.0016070528182616384,0.0871443888390786,0.008778556643140476
0.0017834308769319094,0.10770190660309709,0.00877910320753248
0.0019791668678535573,0.13379433651243744,0.008780291833374164
0.002196385372416547,0.16494174776789805,0.008781784754676048
0.002437444150122222,0.20032782563362161,0.008782854422713163
0.002704959730463137,0.2388263768652905,0.008783296547517111
0.0030018358135755923,0.279048319853473,0.008783188511174914
0.003331294787934677,0.3194068670447905,0.00878311567872143
0.0036969127071950323,0.3581973350358112,0.008783853241016168
0.00410265810582719,0.39368696136739345,0.008786304969675002
0.004552935074866948,0.4242093444238435,0.008790797886214069
0.00505263106533568,0.44825771115574753,0.00879735651632622
0.005607169938205458,0.4645711902128369,0.008804996228282572
0.006222570836730231,0.472208631488229,0.008812507139754332
0.006905513520162331,0.47060524595190145,0.008818448596628442
0.007663410868007463,0.4596083942944915,0.008821902035204826
0.008504489341802686,0.43949015888529175,0.008823036154377935
0.009437878277775391,0.4109358023947607,0.008822702543512941
0.010473708979594508,0.3750087484127107,0.008823005166783244
0.011623224686798541,0.33309420946784485,0.008825822307904217
0.01289890261253308,0.2868249356556589,0.008833169807122173
0.014314589375234785,0.23799367046945008,0.008845742673509937
0.015885651294280528,0.1884577061039181,0.008862727745942251
0.01762914118095948,0.14004137530810112,0.008881751171689227
0.01956398343517065,0.09444237486582097,0.00889990802972203
0.021711179456945052,0.053147486408761324,0.008914066389760904
0.02409403560239527,0.017362571667263182,0.008922446312575069
0.026738416158399492,-0.012039277197118281,0.00892515744741823
0.029673024081888724,-0.0345487838048939,0.008924602119069489
0.032929712550971546,-0.050029460904852385,0.008925047598698497
0.036543830709572546,-0.058704673803049445,0.008931228139854332
0.040554607358408275,-0.06112434109058995,0.008947346584070303
0.04500557675700498,-0.05811406735892888,0.008974811430708574
0.0499450511585514,-0.05071052921402952,0.009011918901577544
0.05542664520663107,-0.04008768091978254,0.009053874932336774
0.06150985788580504,-0.027478764885245255,0.00909388104686009
0.06826071834272393,-0.01409918950298561,0.00912554479675011
0.0757525025877192,-0.0010750726098649466,0.009144639154875213
0.08406652885618333,0.010618317419130108,0.009151178902346993
0.09329304026284696,0.02020482278703639,0.009150170703090288
0.10353218432956637,0.027139979165895056,0.009150668736583111
0.11489510001873086,0.031126677616157394,0.009163242793674909
0.1275051240713013,0.03211383404971002,0.00919701953812266
0.1414991297434576,0.030279117688678525,0.009255980644398656
0.15702901247293774,0.025997791388931546,0.009336773892540454
0.17426333860096507,0.019800532267368,0.009429362656760079
0.19338917504552322,0.012323682906981048,0.00951899789745577
0.21461411978584058,0.004255705529089937,0.009591218930559737
0.23816855519761607,-0.0037163402770374887,0.009636115664681477
0.2643081486974108,-0.01095668719221976,0.00965298198616169
0.29331662783900486,-0.016923959340829242,0.009651596715439923
0.32550885998350565,-0.02120493973200155,0.009651478535095449
0.36123426997094304,-0.023537281690323653,0.009677165617381567
0.40088063288984643,-0.023820236694177765,0.009750780435796212
0.4448782831127585,-0.02211337909636768,0.009883564911249625
0.4937047852839004,-0.018624104328523572,0.01006994427450486
0.5478901179593945,-0.01368540380565264,0.010287498425224686
0.6080224261649427,-0.0077259834469032285,0.010502590887812135
0.67475440531107,-0.0012352119197203137,0.010680799151660592
0.748810385759003,0.005274433078056973,0.010796906874179125
0.8309941949353403,0.01130471866690641,0.010845233794442643
0.9221978823334341,0.016406288938469515,0.010845064672222493
1.0234114021054528,0.020208381662996544,0.010841173037344028
1.135733358343105,0.022441892968458887,0.010896064503889316
1.2603829296797273,0.02295459964307156,0.01107200229071662
1.3987131026472386,0.021717938971960393,0.011406651382112745
1.552225357427048,0.018825339113504924,0.011893583542090368
1.7225859653987874,0.01448264762530016,0.012479575423416633
1.9116440753857036,0.008991687593265851,0.013079797919665962
2.121451784910632,0.0027283531976536324,0.013602376725609691
2.35428641432242,-0.0038830804683129827,0.013973172534867283
2.612675225563332,-0.01039762085520124,0.014158972758164683
2.8994228538828812,-0.01637737399175876,0.014186971479010149
3.2176417502507353,-0.021417798903826224,0.014161169449668326
3.5707859649004625,-0.025170897126031377,0.014263043219709585
3.9626886387014784,-0.027364122790572765,0.014715729028921164
4.397603609302721,-0.027814143579462325,0.015699111184578417
4.880251583654434,-0.026434954316528092,0.017256665756470047
5.415871378079476,-0.023240219306103427,0.01927010562350366
6.010276782070388,-0.01834007020363515,0.0215108991607662
6.669919663030129,-0.01193289543539322,0.023710593669486153
7.401959996915652,-0.004292905678767056,0.025612840249986987
8.214343584919439,0.004245557577291947,0.02701218288260732
9.115888299750837,0.013305897518762322,0.027794356579870255
10.11637979766207,0.022488214536224405,0.02799611725791452
11.226677735108158,0.03138826391540306,0.027895271638815753
12.458833642950081,0.03961544062036637,0.028116372546646982
13.826221737646593,0.04680895533141438,0.0296343074048344
15.343684089300131,0.05265154147610929,0.03345612885710914
17.02769172225898,0.056880228717091086,0.04009143097186001
18.896523396912116,0.059293919020205976,0.049406207129788514
20.970464013232306,0.05975769693117172,0.06091687195932645
23.27202478960412,0.05820398095715973,0.07405370211311353
25.826187606826746,0.05463077468454003,0.08825055783513337
28.66067616948256,0.04909739419682069,0.10295457914807911
31.80625692794119,0.04171813254885137,0.11762317638584187
35.297073027306574,0.03265436564498714,0.13172758398428092
39.17101490809261,0.022105655513570355,0.14476521381995502
43.47013158125035,0.010300263143591337,0.15627978438454285
48.241087041653735,-0.002514300468504871,0.16588846742524752
53.535666774107185,-0.016080437660889402,0.1733165762654313
59.411339849650396,-0.030138909298742078,0.178441541340736
65.93188271333541,-0.04443633902816657,0.1813490255677889
73.16807143427206,-0.05873159812941253,0.1824038244339878
81.19844993184009,-0.07280097463198842,0.1823335216061334
90.11018251665037,-0.08644210179259915,0.18230694630696984
100.0,-0.09947668185212422,0.18395456852227918
