freq,Zreal,Zimag,sigma_im
0.01,2.0277334711752695,-0.016128836723794393,6.063814597290218e-05
0.01258925411794166,2.0185934567513177,-0.01669210851355274,2.3633846343518172e-05
0.01584893192461111,2.0116153194829054,-0.014917974888987828,2.0815568389398464e-05
0.019952623149688792,2.0069454357187375,-0.011818927881449781,2.0374961549496362e-05
0.02511886431509577,2.004447610725255,-0.008325128559590667,1.8012382169807495e-05
0.031622776601683784,2.003746530667303,-0.005193598066625782,1.5818084647456487e-05
0.039810717055349686,2.00430305032075,-0.002944390345305692,1.4918348445025487e-05
0.05011872336272714,2.005508202388758,-0.001831741807563958,1.483848216610184e-05
0.0630957344480193,2.006780799972462,-0.0018533302550736153,1.475610292267504e-05
0.07943282347242805,2.0076534656461824,-0.002795207147983092,1.4345299974127812e-05
0.1,2.007834036706917,-0.0043045692262921875,1.378731090762031e-05
0.12589254117941662,2.0072334029077314,-0.005978234144549788,1.3376228518602318e-05
0.1584893192461111,2.0059564024442817,-0.007452178991002256,1.321834853218462e-05
0.1995262314968879,2.004258600652154,-0.00847739755386101,1.3208396340225192e-05
0.2511886431509577,2.002477591210728,-0.008969704268736223,1.3180781947230713e-05
0.31622776601683794,2.000951872899545,-0.009025685293693186,1.3057231528890156e-05
0.3981071705534969,1.9999425306757361,-0.008903052573145942,1.28753592405495e-05
0.5011872336272715,1.9995724065938805,-0.008970202940872696,1.2721167038876047e-05
0.6309573444801929,1.999794173524108,-0.009635461512402799,1.264508431786382e-05
0.7943282347242805,2.000393219427692,-0.011270599162344297,1.2632297516912416e-05
1.0,2.001024456672422,-0.014144334902312039,1.263036934151529e-05
1.2589254117941662,2.001275331431659,-0.018379942820104134,1.2598488804638208e-05
1.584893192461111,2.0007417425086724,-0.023946405461941822,1.253497362752043e-05
1.9952623149688788,1.9991004346844856,-0.030685964274937305,1.2466689318646473e-05
2.5118864315095766,1.996161450885901,-0.038373337523637474,1.2422047097615518e-05
3.1622776601683795,1.9918875769749715,-0.04679488239321472,1.2407485230792048e-05
3.981071705534969,1.9863739174213366,-0.05583096448197011,1.2408131090158037e-05
5.011872336272715,1.9797887372227776,-0.06552281414991512,1.2403225992052569e-05
6.30957344480193,1.972285020184061,-0.07610681167435018,1.2383405422422555e-05
7.943282347242805,1.9638992040397345,-0.08800447186399651,1.2354585029239473e-05
10.0,1.9544577992735765,-0.1017642043806859,1.2330038147823075e-05
12.589254117941664,1.9435130774005351,-0.11796039797877711,1.231858681371989e-05
15.848931924611108,1.9303253976873498,-0.13706419300507378,1.2318197491367755e-05
19.95262314968879,1.9139024727644292,-0.15930726149878183,1.2319871312005404e-05
25.118864315095767,1.8930961197420197,-0.1845631827741272,1.2315928193284975e-05
31.622776601683796,1.8667465002199781,-0.21226998222516613,1.2305201205986549e-05
39.81071705534969,1.8338544418294938,-0.24141203814861,1.2293496909787649e-05
50.11872336272725,1.793755945101036,-0.2705705244135288,1.2287386786713483e-05
63.09573444801929,1.7462707251409024,-0.2980404830721568,1.2288770344870414e-05
79.43282347242804,1.6917991912001096,-0.3220013073006385,1.2293802025720169e-05
100.0,1.6313493358258986,-0.3407179846233248,1.2296334289896294e-05
125.89254117941664,1.5664854657491576,-0.35274447074309023,1.2293806900931514e-05
158.48931924611125,1.4992028005614906,-0.35709938966215304,1.228883988746432e-05
199.5262314968879,1.431743617023235,-0.35338787345551737,1.2287369707930651e-05
251.18864315095797,1.3663798146129627,-0.3418514523254146,1.2293523189210731e-05
316.227766016838,1.3051919434854087,-0.3233388818937897,1.2305013663560516e-05
398.10717055349687,1.249875012761231,-0.2992029047349831,1.2315784886585135e-05
501.187233627272,1.2015968005831021,-0.2711390342297477,1.2319753517342491e-05
630.957344480193,1.1609257906368067,-0.24099065911508433,1.2318048625559186e-05
794.3282347242813,1.1278348182474685,-0.21054890738042786,1.2318553460399784e-05
1000.0,1.1017749614268852,-0.18137499612953434,1.2330051124553876e-05
1258.9254117941662,1.0818041172876272,-0.15466781963658605,1.2354481873977363e-05
1584.8931924611124,1.0667476853190203,-0.13119107248076034,1.2383400083582075e-05
1995.2623149688789,1.05536584308023,-0.11126414047339495,1.2403269887162338e-05
2511.8864315095802,1.046503283188237,-0.09481087498511442,1.2408208063252602e-05
3162.2776601683795,1.0392024452927482,-0.08145211678657915,1.240768258670144e-05
3981.0717055349687,1.0327690528155242,-0.07062263000136682,1.2422178576443343e-05
5011.8723362727205,1.0267876014019282,-0.06169154096625107,1.2466916506692627e-05
6309.57344480193,1.0210927232413922,-0.054067557158305135,1.2535174195082988e-05
7943.282347242814,1.0157086798822477,-0.047275225331873116,1.2598807481722929e-05
10000.0,1.0107726985401655,-0.04099531266422218,1.2630572063798695e-05
12589.254117941662,1.0064581504065684,-0.0350695160310579,1.263263899398126e-05
15848.93192461114,1.0029109745027909,-0.029475876957803848,1.2645471942906994e-05
19952.623149688792,1.000208081934339,-0.024285431034968497,1.272141926556003e-05
25118.864315095827,0.9983408455683019,-0.019612284101867772,1.2875712333215716e-05
31622.776601683792,0.997221370377683,-0.015568336525120685,1.305748200186585e-05
39810.71705534969,0.9967050676707155,-0.012230954326014398,1.3181132543227392e-05
50118.72336272724,0.9966207960531213,-0.009627583921087535,1.320863109688375e-05
63095.7344480193,0.9967997156384931,-0.0077368978170397895,1.3218805743342443e-05
79432.82347242821,0.997095817404047,-0.006502197883492045,1.3376353266369989e-05
100000.0,0.9973942632503321,-0.00585035467202033,1.3787516353502838e-05
125892.5411794166,0.9976074157148264,-0.0057091041417152155,1.4345642683100124e-05
158489.3192461114,0.9976619191319701,-0.006016278530978525,1.475629380065513e-05
199526.2314968879,0.9974827064682317,-0.006717320506368196,1.4838722971255436e-05
251188.6431509582,0.9969808735884818,-0.007750512375878316,1.4918738547198274e-05
316227.7660168379,0.9960517847009752,-0.009025419492445508,1.5818449076387964e-05
398107.17055349686,0.9945875660635678,-0.01037388451663901,1.8012588073990088e-05
501187.2336272725,0.9925044011551248,-0.011573329810062205,2.037533459375851e-05
630957.344480193,0.9897797938587573,-0.012285745039662288,2.081574232892791e-05
794328.2347242822,0.9864884116080394,-0.012000524723703165,2.3634107629622036e-05
1000000.0,0.9828188290715701,-0.010253060307036321,6.063839432401963e-05
