tau,gamma
0.006737946999085466,4.579016329827369e-06
0.007103013268856361,9.594071622853615e-06
0.007487859062173905,1.8163219121079258e-05
0.007893556046250663,3.113272977852484e-05
0.00832123395191293,4.846281175584906e-05
0.008772083719524362,6.882603788903632e-05
0.009247360815357767,8.976668429154779e-05
0.009748388727650104,0.00010850210581977406
0.010276562652075886,0.00012296625543877545
0.010833353376901932,0.00013245830023494052
0.011420311378642276,0.00013754612326806492
0.012039071139618275,0.00013944161143133468
0.012691355699446872,0.00013936324536548836
0.013378981453131423,0.00013820653252204207
0.014103863209116094,0.0001364855462905982
0.01486801952138893,0.00013439586542277862
0.015673578310481672,0.00013195522320465203
0.01652278278901886,0.00012921005301469628
0.017417997708317062,0.00012639485953847346
0.0183617159434288,0.00012391473241544723
0.019356565434968317,0.0001221724257727337
0.02040531650704995,0.00012138484685953179
0.021510889581717107,0.00012148834176154262
0.022676363311343803,0.00012214126196720575
0.023904983151655027,0.0001228330902171911
0.025200170399238803,0.0001231155492558687
0.02656553171871635,0.00012286786398227773
0.028004869186100477,0.0001224105568716992
0.029522190876309574,0.00012237033571286117
0.031121722024319735,0.0001234012335168217
0.03280791679103535,0.00012594594246087752
0.03458547066664211,0.000130127995348204
0.0364593335459814,0.00013577510660442075
0.03843472351235704,0.00014256824933712542
0.0405171413681574,0.00015028076579390927
0.042712385952755796,0.00015898598971208867
0.04502657029034464,0.0001691252994444468
0.04746613861266957,0.00018149915462379516
0.05003788430406602,0.00019738964964167446
0.05274896881876944,0.00021910288695421612
0.055606941623177565,0.000251860723190744
0.05861976121859689,0.000310961330436701
0.061795817303015234,0.0004476452525531824
0.06514395413361329,0.0008316740451759463
0.06867349515507169,0.001979178343006645
0.07239426896225575,0.005287234322485105
0.07631663666957506,0.014072736683522206
0.0804515207632321,0.03515639666774841
0.08481043551670452,0.08048263323790852
0.08940551905415753,0.16734542869128335
0.09424956715107226,0.31514284698327333
0.0993560688662139,0.5374586875131191
0.10473924410416283,0.8314291175507923
0.11041408321300714,1.1703199405983928
0.11639638872746379,1.5061339428121452
0.12270281937366895,1.7839202219806376
0.1293509364581752,1.9607775247970372
0.13635925277033487,2.018037202285783
0.1437472841342458,1.9602297177229167
0.1515356037538138,1.8051610579730268
0.15974589950226564,1.5752511612104454
0.1684010343156449,1.2957544651609911
0.17752510985846495,0.9964679425302503
0.1871435336388085,0.7100989054605457
0.19728308975976602,0.4652754174839946
0.20797201350423158,0.278693975256283
0.2192400699607512,0.15210582731869585
0.23111863690937004,0.0756486903546628
0.24364079219828674,0.0344933415493001
0.2568414058546314,0.014701880070516118
0.2707572371858648,0.0061569556587511886
0.28542703714219186,0.00281227930302903
0.3008916562250374,0.00160798441514386
0.3171941582420718,0.0012134713324672803
0.3343799402255558,0.0011268014531774582
0.3524968588479384,0.0011817072019564138
0.37159536368673307,0.0013288345220174276
0.39172863770976835,0.001555448971736794
0.4129527453720206,0.0018603064895007211
0.4353267887364277,0.0022459456281590656
0.4589130720534265,0.0027163059602138898
0.483777275257516,0.0032771761215810787
0.5099886368639759,0.00393744604904901
0.5376201467750433,0.004708459546600909
0.5667487495324537,0.005601767345689273
0.5974555585823343,0.006628964061796108
0.6298260821491041,0.007804861194188214
0.663950461347367,0.00914953958465312
0.6999237211948623,0.010685658930752295
0.7378460352254496,0.012435369278575706
0.7778230044390037,0.014423198254278236
0.8199659513649863,0.016681561466629077
0.8643922300585688,0.01924930726112305
0.9112255528925503,0.022164152402045497
0.9605963350550639,0.02546151305025966
1.0126420577123871,0.029182489688042313
1.0675076508481538,0.03337549303954006
1.1253458968450323,0.038083181194677726
1.1863178559327128,0.04333306023139656
1.2505933146869508,0.04914929475775736
1.3183512588285655,0.05556726530541075
1.3897803716389856,0.06262086171558792
1.4650795593802837,0.07031621214700555
1.5444585051827886,0.07863690624973292
1.6281382529426836,0.08758038184531561
1.7163518228555608,0.09716718861016285
1.8093448602999653,0.10740031439531769
1.9073763198778606,0.1182381639826707
2.010719186516862,0.129633642631214
2.1196612356422295,0.14158174356616882
2.2345058345354687,0.15409090825786906
2.355572787111065,0.16711602488677857
2.483199224463749,0.18056762500719226
2.6177405436661707,0.19439391725987104
2.7595713974312646,0.20860017976970657
2.9090867373951204,0.2231612927319088
3.0667029139255924,0.23796816131874837
3.2328588355192625,0.252907459979719
3.4080171910152477,0.26794841469445724
3.592665738029329,0.28308109362396683
3.7873186611962937,0.29819626703931934
3.9925180040026884,0.31311151642161644
4.208835178197177,0.327711166698043
4.436872554981753,0.3419622237736166
4.67726514241468,0.35576497270591617
4.9306823536961755,0.36888830242896864
5.197829871261,0.38111793335340316
5.479451611868721,0.3923847833759835
5.776331798163825,0.4026537584684257
6.089297142474323,0.4117492667350714
6.4192191489299155,0.4194126465605911
6.767016540310378,0.42550457870689784
7.133657816382208,0.4300138330750753
7.520163950847523,0.43285371196209854
7.927611234415363,0.4337964733470055
8.357134271912493,0.43268205307020213
8.809929141779493,0.4295797337533504
9.287256726750387,0.42464545307752355
9.790446224990665,0.41790843635001795
10.320898851470968,0.4093289959451912
10.88009173988351,0.39901937012688443
11.469582055966955,0.3872579661194527
12.091011333693753,0.3742745032602012
12.746110046394861,0.3601518210430656
13.436702425551045,0.3449830705295317
14.164711540669245,0.3290074209099232
14.932164654389897,0.3125044587693057
15.741198867737497,0.29563068063389436
16.594067071234324,0.27845849620426827
17.493144218449313,0.26113455036069116
18.440933939451924,0.24389498381606944
19.440075512587047,0.22692757442252695
20.4933512139851,0.21031065435290477
21.603694065273455,0.19411133158262636
22.774196001063633,0.1784687720623427
24.008116478958158,0.16353593319951262
25.308891556053304,0.14938908479009272
26.680143457212324,0.1360468427669484
28.125690661753833,0.12355084838696338
29.649558536643646,0.11197498613074572
31.255990545799495,0.10136120224244215
32.94946006672302,0.09168951320392156
34.7346828473647,0.08291682001129334
36.61663013790941,0.07501125454599326
38.600542534050476,0.06793579149401342
40.69194457030146,0.061624699696822494
42.89666010398265,0.0559969588056764
45.22082853272161,0.050981971983765986
47.67092189062879,0.046518660322794086
50.253762870754336,0.04254025808753291
52.97654382401316,0.03897766108040476
55.84684678748435,0.03577624829051146
58.872664597856144,0.03289757639396897
62.062423148810836,0.03030519062346164
65.4250048543295,0.02795939640245708
68.96977338325308,0.02582724063617034
72.70659973397773,0.023887965053440582
76.64588972189405,0.022124418168933194
80.79861295611386,0.020515380785229777
85.17633338617287,0.019040337761512788
89.79124150377488,0.01768639582455313
94.65618828924686,0.016445102711812962
99.78472099723308,0.015305318231621628
105.19112088128277,0.014254098192056766
110.8904429623799,0.013282893747770643
116.89855795215551,0.012387946179420834
123.23219644752831,0.011564582318249196
129.90899551983924,0.010805034756936272
136.94754782821292,0.010102397121671169
144.36745339391442,0.00945309796689007
152.18937417987405,0.008853948203917978
160.43509162736297,0.008299463401383867
169.12756731004515,0.00778409025316122
178.29100687430494,0.0073052586890454034
187.95092744389908,0.00686216051729348
198.13422867663894,0.0064526576291081515
208.86926767096958,0.006073443487062922
220.18593793103105,0.005722631430496337
232.11575261010105,0.00540010930350668
244.69193226422044,0.005105276934392035
