tau,gamma
1e-07,-5.51406404264707e-06
1.1097524964120721e-07,-2.8202750950003904e-05
1.2315506032928263e-07,-9.739722512025093e-05
1.3667163564620074e-07,-0.00023254948010691825
1.5167168884709241e-07,-0.0004058887458624085
1.6831803533309585e-07,-0.0005812718176426535
1.867913599020781e-07,-0.0008002251766000799
2.0729217795953698e-07,-0.0011070263312006872
2.300430119772917e-07,-0.001310782552609803
2.5529080682395163e-07,-0.001148812347674119
2.833096101839324e-07,-0.0013240660307617651
3.1440354715915e-07,-0.003412374079240065
3.489101213406774e-07,-0.005514061014090698
3.872038781812557e-07,-0.0005517275869980724
4.2970047043208437e-07,0.0033476396669817367
4.768611697714474e-07,-0.05008101738451255
5.291978735958437e-07,-0.24171413880594175
5.872786613189477e-07,-0.5901056372252094
6.517339604882421e-07,-1.0409923101112863
7.232633896483533e-07,-1.5407086009264532
8.026433522257174e-07,-2.0481761263296794
8.907354638610439e-07,-2.533829564396552
9.884959046625586e-07,-2.9751242539419795
1.096985797892384e-06,-3.3466165998244746
1.217382727739662e-06,-3.6317194207003527
1.3509935211980278e-06,-3.7759244041478395
1.499268432786047e-06,-3.6621787911287482
1.6638168860761274e-06,-3.1528721590692212
1.8464249428955464e-06,-2.293152961071911
2.049074689815846e-06,-1.3556573121783415
2.2739657523579273e-06,-0.5804415608062196
2.523539170434766e-06,-0.09354426769389611
2.800503894183631e-06,0.09130485663443777
3.107866187782014e-06,0.09873737736318844
3.4489622604057595e-06,0.07252198134921665
3.827494478516315e-06,0.06486632566923545
4.247571552536894e-06,0.06566790947530582
4.713753134116729e-06,0.0636294321404383
5.2310993080562585e-06,0.05959121299970561
5.805225516094895e-06,0.05618641141756313
6.44236350872137e-06,0.05357254563486832
7.149428986597577e-06,0.05106501816264751
7.934096665797492e-06,0.04858620791156837
8.804883581643465e-06,0.04624751215229948
9.771241535346501e-06,0.044146515651166125
1.0843659686896109e-05,0.042258375158496474
1.2033778407775906e-05,0.04059961168157553
1.3354515629298974e-05,0.03919423659149818
1.48202070579886e-05,0.0380598219205906
1.6446761779946626e-05,0.03722532566699569
1.8251834943190462e-05,0.0366880216849296
2.0255019392306664e-05,0.03648154526784788
2.2478058335487252e-05,0.03659782163034759
2.4945081352303165e-05,0.03707349082227468
2.7682866303920665e-05,0.03789895004083551
3.072112998861759e-05,0.039109820615508994
3.409285069746814e-05,0.04069526807934539
3.783462617131933e-05,0.04268041609247786
4.1987070844439056e-05,0.045048130373722496
4.659525668664687e-05,0.04779775818682766
5.170920242896755e-05,0.050902292619485236
5.7384416483024044e-05,0.05431730936085982
6.368249944718586e-05,0.05800888016188293
7.067181273927492e-05,0.06188163196456099
7.842822061337681e-05,0.06591021932921429
8.703591361485166e-05,0.06996570361615163
9.658832241158708e-05,0.07403116191061805
0.00010718913192051276,0.077979473265888
0.00011895340673703195,0.0817957119161628
0.0001320088400831418,0.08540908235595217
0.00014649713983072864,0.08879548426902502
0.0001625755666443795,0.09196887918767324
0.00018041864093920718,0.09489078462968545
0.00020022003718155845,0.09765021712109616
0.0002221946860939524,0.10020233577012967
0.0002465811075822604,0.10266964390733095
0.0002736439997074672,0.10501341092993724
0.00030367711180354605,0.10733674974005744
0.00033700643292719284,0.10961600161364166
0.0003739937302478798,0.11189638964463203
0.0004150404757850477,0.11417923694618856
0.00046059220411451084,0.11643221960970902
0.0005111433483440171,0.11868022105481617
0.0005672426068491978,0.1208112985467454
0.0006294988990221888,0.12285904095012819
0.0006985879746785249,0.12465893495955332
0.0007752597488629464,0.12624838603997396
0.000860346441668451,0.12747637727399314
0.0009547716114208065,0.128368325788738
0.001059560179277617,0.12884959417856706
0.0011758495540521582,0.12891282711117938
0.0013049019780144017,0.12858664873816597
0.001448118227674533,0.12782389832663824
0.0016070528182616384,0.12673547464557197
0.0017834308769319094,0.12525240332844434
0.0019791668678535573,0.12352270116344397
0.002196385372416547,0.12148988248449691
0.002437444150122222,0.11928227242993993
0.002704959730463137,0.11688126552811547
0.0030018358135755923,0.11435886321166999
0.003331294787934677,0.11174872194685469
0.0036969127071950323,0.10905778600898479
0.00410265810582719,0.10636458309844321
0.004552935074866948,0.10362471627473753
0.00505263106533568,0.10093593778916583
0.005607169938205458,0.09822903394485513
0.006222570836730231,0.09558975724263805
0.006905513520162331,0.09295402688164692
0.007663410868007463,0.09037397816773446
0.008504489341802686,0.08781856838135577
0.009437878277775391,0.08530102092065626
0.010473708979594508,0.08284139416529429
0.011623224686798541,0.08042330613151724
0.01289890261253308,0.0781156462484395
0.014314589375234785,0.07589203099314175
0.015885651294280528,0.0738497811697042
0.01762914118095948,0.07197297730540508
0.01956398343517065,0.07035772855639971
0.021711179456945052,0.0690093652732627
0.02409403560239527,0.06800184136716833
0.026738416158399492,0.06736372726980894
0.029673024081888724,0.06714003744023697
0.032929712550971546,0.06737945231238736
0.036543830709572546,0.06810143843202646
0.040554607358408275,0.06937139517877063
0.04500557675700498,0.0711893954856313
0.0499450511585514,0.07363213763068421
0.05542664520663107,0.07668410356805068
0.06150985788580504,0.08042414483753148
0.06826071834272393,0.08482507806927268
0.0757525025877192,0.08995739385111093
0.08406652885618333,0.09579733616633401
0.09329304026284696,0.102398416241379
0.10353218432956637,0.10977700697467452
0.11489510001873086,0.11797772568920799
0.1275051240713013,0.1271209139364832
0.1414991297434576,0.13727873476044158
0.15702901247293774,0.14873112997845803
0.17426333860096507,0.16164873609754532
0.19338917504552322,0.17652717208039947
0.21461411978584058,0.19377373940766102
0.23816855519761607,0.21423434861893406
0.2643081486974108,0.23883308397775943
0.29331662783900486,0.2690111467959363
0.32550885998350565,0.30632481549182305
0.36123426997094304,0.3520314908019517
0.40088063288984643,0.4064946447656297
0.4448782831127585,0.46931263540996704
0.4937047852839004,0.5395214548284688
0.5478901179593945,0.6149190918541574
0.6080224261649427,0.6938040466946002
0.67475440531107,0.7727455608714928
0.748810385759003,0.849385674746841
0.8309941949353403,0.9203880613658777
0.9221978823334341,0.9844634082838875
1.0234114021054528,1.039776365623139
1.135733358343105,1.075533760270129
1.2603829296797273,1.0711864221016978
1.3987131026472386,1.0112628045516914
1.552225357427048,0.9089894671533514
1.7225859653987874,0.7853417321970689
1.9116440753857036,0.6525286589263252
2.121451784910632,0.5151803782049068
2.35428641432242,0.3753439597200882
2.612675225563332,0.23984048177204176
2.8994228538828812,0.12173567360331682
3.2176417502507353,0.04250438787869805
3.5707859649004625,0.01009493143414497
3.9626886387014784,0.00560487075551142
4.397603609302721,0.006754468181337137
4.880251583654434,0.005976140186606138
5.415871378079476,0.0046104249631087335
6.010276782070388,0.003907606571559302
6.669919663030129,0.003554993388974605
7.401959996915652,0.0031621405288711265
8.214343584919439,0.0027347725785297748
9.115888299750837,0.002353385164486672
10.11637979766207,0.0020222807731163526
11.226677735108158,0.0017130297470002427
12.458833642950081,0.00141777811213039
13.826221737646593,0.0011333981609712228
15.343684089300131,0.0008479540818660511
17.02769172225898,0.0005564344664608842
18.896523396912116,0.00029140341612069126
20.970464013232306,0.0001118296299661955
23.27202478960412,2.983471878651288e-05
25.826187606826746,5.391597707808118e-06
28.66067616948256,6.524931086905415e-07
31.80625692794119,5.262767321610218e-08
35.297073027306574,2.823428178443123e-09
39.17101490809261,1.00673546933373e-10
43.47013158125035,2.3850019762642446e-12
48.241087041653735,3.7535276490676755e-14
53.535666774107185,3.9241429517734334e-16
59.411339849650396,2.7251785520013585e-18
65.93188271333541,1.257147537138216e-20
73.16807143427206,3.852273761456295e-23
81.19844993184009,7.841281070012704e-26
90.11018251665037,1.0602191231165305e-28
100.0,9.522322292357026e-32
