tau,gamma
1e-07,5.651624470794769e-06
1.1097524964120721e-07,2.8649332870505095e-05
1.2315506032928263e-07,9.68017319054965e-05
1.3667163564620074e-07,0.00021929339355270045
1.5167168884709241e-07,0.00033924699383683544
1.6831803533309585e-07,0.00038209788466903375
1.867913599020781e-07,0.00038348499540038957
2.0729217795953698e-07,0.0004690047567460056
2.300430119772917e-07,0.000678478407768752
2.5529080682395163e-07,0.000914183571622082
2.833096101839324e-07,0.0010811267851995583
3.1440354715915e-07,0.001165141862888608
3.489101213406774e-07,0.0011892653350114083
3.872038781812557e-07,0.0011856577516076688
4.2970047043208437e-07,0.0011636876039232066
4.768611697714474e-07,0.0010920342761067043
5.291978735958437e-07,0.0009847147004377699
5.872786613189477e-07,0.0010996357937594888
6.517339604882421e-07,0.0018780433509078096
7.232633896483533e-07,0.0033928380749305423
8.026433522257174e-07,0.0051197594618308745
8.907354638610439e-07,0.006539837048552651
9.884959046625586e-07,0.007495491289752977
1.096985797892384e-06,0.007978165629223495
1.217382727739662e-06,0.008010448375550275
1.3509935211980278e-06,0.007570800151884155
1.499268432786047e-06,0.006662009556335782
1.6638168860761274e-06,0.0053555805974651
1.8464249428955464e-06,0.003882432640867542
2.049074689815846e-06,0.0026514892866883184
2.2739657523579273e-06,0.0018488277940180793
2.523539170434766e-06,0.0013084983371480078
2.800503894183631e-06,0.0008404409414822911
3.107866187782014e-06,0.0004756015144881034
3.4489622604057595e-06,0.00040670953831702
3.827494478516315e-06,0.0008810423652244991
4.247571552536894e-06,0.0020839861562064097
4.713753134116729e-06,0.003846491591915687
5.2310993080562585e-06,0.005704521618591873
5.805225516094895e-06,0.007396781898198971
6.44236350872137e-06,0.008927229580331953
7.149428986597577e-06,0.010354558805983068
7.934096665797492e-06,0.011684963529534577
8.804883581643465e-06,0.012884608532883462
9.771241535346501e-06,0.013965818415996884
1.0843659686896109e-05,0.014927017552835918
1.2033778407775906e-05,0.015787952868993118
1.3354515629298974e-05,0.01654076322847038
1.48202070579886e-05,0.01719084566448193
1.6446761779946626e-05,0.017738895073752124
1.8251834943190462e-05,0.01818066725552433
2.0255019392306664e-05,0.01852749813707595
2.2478058335487252e-05,0.01876395025114772
2.4945081352303165e-05,0.0189010965424337
2.7682866303920665e-05,0.018916626293299647
3.072112998861759e-05,0.01882187515382435
3.409285069746814e-05,0.018587746376677705
3.783462617131933e-05,0.018176062535625495
4.1987070844439056e-05,0.017552996457633595
4.659525668664687e-05,0.01679732601518557
5.170920242896755e-05,0.016009205816348612
5.7384416483024044e-05,0.014843506833205856
6.368249944718586e-05,0.012705921912381709
7.067181273927492e-05,0.010431086617757457
7.842822061337681e-05,0.01152059530442794
8.703591361485166e-05,0.018604167938006046
9.658832241158708e-05,0.02886658805453099
0.00010718913192051276,0.03708695276644776
0.00011895340673703195,0.04180345182997441
0.0001320088400831418,0.0447069375772967
0.00014649713983072864,0.04719097477107459
0.0001625755666443795,0.04942844712956509
0.00018041864093920718,0.05125561263663231
0.00020022003718155845,0.052799662381315816
0.0002221946860939524,0.05419855764722232
0.0002465811075822604,0.055624743089269346
0.0002736439997074672,0.05711966902318576
0.00030367711180354605,0.058777602571182926
0.00033700643292719284,0.060619733049398536
0.0003739937302478798,0.06270049115421805
0.0004150404757850477,0.06504442945287432
0.00046059220411451084,0.06767629998034287
0.0005111433483440171,0.07065532705704723
0.0005672426068491978,0.07399274877492862
0.0006294988990221888,0.07778572588833871
0.0006985879746785249,0.0820396301761782
0.0007752597488629464,0.08687598728232818
0.000860346441668451,0.09229387698334147
0.0009547716114208065,0.09839385266641558
0.001059560179277617,0.10515828059067779
0.0011758495540521582,0.11266959745284465
0.0013049019780144017,0.12097038052277657
0.001448118227674533,0.1301251057382119
0.0016070528182616384,0.1402324566020781
0.0017834308769319094,0.151244027179672
0.0019791668678535573,0.16317736119889703
0.002196385372416547,0.17581744110435618
0.002437444150122222,0.18920274923487532
0.002704959730463137,0.20281760781103095
0.0030018358135755923,0.2159154381417608
0.003331294787934677,0.22811191079892995
0.0036969127071950323,0.2422201949503939
0.00410265810582719,0.2608434211930159
0.004552935074866948,0.27412824779438416
0.00505263106533568,0.26594424358247437
0.005607169938205458,0.2700818145683346
0.006222570836730231,0.4031791469769169
0.006905513520162331,0.7168731479293321
0.007663410868007463,1.0066141471252386
0.008504489341802686,0.9865958709523982
0.009437878277775391,0.6753915343211757
0.010473708979594508,0.3390453108055367
0.011623224686798541,0.1363803139495227
0.01289890261253308,0.0497389136005465
0.014314589375234785,0.019795956239303365
0.015885651294280528,0.010724390739956187
0.01762914118095948,0.007641390541699533
0.01956398343517065,0.0059304034053292345
0.021711179456945052,0.004666935591588985
0.02409403560239527,0.0036813128217128175
0.026738416158399492,0.002857586539498553
0.029673024081888724,0.002111486817489609
0.032929712550971546,0.0014257461783923446
0.036543830709572546,0.0008565500209826823
0.040554607358408275,0.0005309424927615841
0.04500557675700498,0.000493984029851344
0.0499450511585514,0.0006180448838713305
0.05542664520663107,0.00075347220671732
0.06150985788580504,0.0008463359101647897
0.06826071834272393,0.0008964285225380778
0.0757525025877192,0.0009070563258529772
0.08406652885618333,0.0008717051962381754
0.09329304026284696,0.000787734960237012
0.10353218432956637,0.0006649301504115728
0.11489510001873086,0.0005310227987757167
0.1275051240713013,0.0004361951808340435
0.1414991297434576,0.00040508905980827576
0.15702901247293774,0.0004065759743058256
0.17426333860096507,0.0003947257933500775
0.19338917504552322,0.00034960035919072896
0.21461411978584058,0.00027487049895795414
0.23816855519761607,0.00019774998205815468
0.2643081486974108,0.00015668722257724908
0.29331662783900486,0.00016368895750879835
0.32550885998350565,0.0002012759245435626
0.36123426997094304,0.0002481977138592548
0.40088063288984643,0.00028827493849869454
0.4448782831127585,0.00031324654470108273
0.4937047852839004,0.000325706441396221
0.5478901179593945,0.00033049757668336005
0.6080224261649427,0.0003299370802584302
0.67475440531107,0.0003233668078959542
0.748810385759003,0.0003104424878458705
0.8309941949353403,0.0002921574908469423
0.9221978823334341,0.00027195635523626956
1.0234114021054528,0.00025626678168959066
1.135733358343105,0.00024814465645151327
1.2603829296797273,0.0002453201128326888
1.3987131026472386,0.00024401841362289682
1.552225357427048,0.00024274064257678418
1.7225859653987874,0.00024095017191777058
1.9116440753857036,0.00023883842747914006
2.121451784910632,0.0002366536854782206
2.35428641432242,0.00023518758362615943
2.612675225563332,0.00023555230182519525
2.8994228538828812,0.00023796447409458563
3.2176417502507353,0.00024179878523437288
3.5707859649004625,0.0002462667379564771
3.9626886387014784,0.0002514950676263929
4.397603609302721,0.0002572462324982118
4.880251583654434,0.0002633173930443546
5.415871378079476,0.000270336340315489
6.010276782070388,0.0002828721344833458
6.669919663030129,0.00030678111993906194
7.401959996915652,0.00034239935987226064
8.214343584919439,0.00038354617890026186
9.115888299750837,0.0004238847994528486
10.11637979766207,0.00045837971336534967
11.226677735108158,0.0004822253875126866
12.458833642950081,0.0004905981270559799
13.826221737646593,0.00047274801942461745
15.343684089300131,0.0004125342041100627
17.02769172225898,0.0003008607272833201
18.896523396912116,0.00016703306207713686
20.970464013232306,6.589259429961826e-05
23.27202478960412,1.7790589212070608e-05
25.826187606826746,3.231077253671247e-06
28.66067616948256,3.91824026896176e-07
31.80625692794119,3.162928264040766e-08
35.297073027306574,1.6974536485571525e-09
39.17101490809261,6.053348676664914e-11
43.47013158125035,1.4341448169520298e-12
48.241087041653735,2.2571144236562653e-14
53.535666774107185,2.359732095678402e-16
59.411339849650396,1.6387565095978751e-18
65.93188271333541,7.55973129554119e-21
73.16807143427206,2.3165277817263492e-23
81.19844993184009,4.715280110116068e-26
90.11018251665037,6.375527913647275e-29
100.0,5.726159117925373e-32
