tau,gamma
1e-07,8.401399850564596e-06
1.1097524964120721e-07,4.313139400565152e-05
1.2315506032928263e-07,0.00015023490318476752
1.3667163564620074e-07,0.0003650629256044425
1.5167168884709241e-07,0.0006541299369992882
1.6831803533309585e-07,0.0009425597481589707
1.867913599020781e-07,0.001195980475274979
2.0729217795953698e-07,0.0014176422924705842
2.300430119772917e-07,0.0016169626686498187
2.5529080682395163e-07,0.0017945312944300745
2.833096101839324e-07,0.0019462344900178367
3.1440354715915e-07,0.002071780718064685
3.489101213406774e-07,0.0021669740004158175
3.872038781812557e-07,0.002230448740698698
4.2970047043208437e-07,0.002255092802199401
4.768611697714474e-07,0.0022366990125800646
5.291978735958437e-07,0.0021682842578401936
5.872786613189477e-07,0.002043667466963812
6.517339604882421e-07,0.001859114638100526
7.232633896483533e-07,0.0016089092757705925
8.026433522257174e-07,0.0012951115729038876
8.907354638610439e-07,0.0009170009460133029
9.884959046625586e-07,0.0004826859373594335
1.096985797892384e-06,8.704925628981383e-07
1.217382727739662e-06,-0.000515792756108606
1.3509935211980278e-06,-0.0010481715081345527
1.499268432786047e-06,-0.0015803209742439627
1.6638168860761274e-06,-0.002087048681016397
1.8464249428955464e-06,-0.0025494195366119426
2.049074689815846e-06,-0.002944182549081331
2.2739657523579273e-06,-0.003250736907288724
2.523539170434766e-06,-0.003454982926767237
2.800503894183631e-06,-0.003539395651764851
3.107866187782014e-06,-0.0035015305508930804
3.4489622604057595e-06,-0.0033342004593072115
3.827494478516315e-06,-0.003044123271860253
4.247571552536894e-06,-0.0026393273601658528
4.713753134116729e-06,-0.0021318723781121552
5.2310993080562585e-06,-0.0015432100293726082
5.805225516094895e-06,-0.0008892176179766888
6.44236350872137e-06,-0.00019735484702114556
7.149428986597577e-06,0.000512067363362087
7.934096665797492e-06,0.0012137147104105787
8.804883581643465e-06,0.0018831662102794754
9.771241535346501e-06,0.0025017965917589788
1.0843659686896109e-05,0.0030449091433120534
1.2033778407775906e-05,0.003500668608803653
1.3354515629298974e-05,0.0038508393548478174
1.48202070579886e-05,0.004088188748798055
1.6446761779946626e-05,0.004206698340442694
1.8251834943190462e-05,0.004202451643352476
2.0255019392306664e-05,0.004082102460666537
2.2478058335487252e-05,0.00384591756564654
2.4945081352303165e-05,0.003507739678314982
2.7682866303920665e-05,0.0030733552325016545
3.072112998861759e-05,0.002556395170594074
3.409285069746814e-05,0.001967623743089446
3.783462617131933e-05,0.001315993855500167
4.1987070844439056e-05,0.0006145864194657726
4.659525668664687e-05,-0.00013198123703183636
5.170920242896755e-05,-0.0009113849013348566
5.7384416483024044e-05,-0.0017195733030651108
6.368249944718586e-05,-0.0025469759415678397
7.067181273927492e-05,-0.003385678155290686
7.842822061337681e-05,-0.004229266282222177
8.703591361485166e-05,-0.00506412195198009
9.658832241158708e-05,-0.005886612337990649
0.00010718913192051276,-0.006679721737509196
0.00011895340673703195,-0.007438492847024262
0.0001320088400831418,-0.008148365439539977
0.00014649713983072864,-0.008809381764218055
0.0001625755666443795,-0.009422866932722436
0.00018041864093920718,-0.009964941698003148
0.00020022003718155845,-0.01041063499469388
0.0002221946860939524,-0.010807420138656931
0.0002465811075822604,-0.011337317621480894
0.0002736439997074672,-0.011875170893604415
0.00030367711180354605,-0.011660987202917562
0.00033700643292719284,-0.010704998286280729
0.0003739937302478798,-0.012052828443185594
0.0004150404757850477,-0.016286001915175444
0.00046059220411451084,-0.004862368552260546
0.0005111433483440171,0.061577276072341126
0.0005672426068491978,0.20632326410233304
0.0006294988990221888,0.41303661218983895
0.0006985879746785249,0.6593455927237065
0.0007752597488629464,0.9341415937415336
0.000860346441668451,1.2083043878479294
0.0009547716114208065,1.3980200896294068
0.001059560179277617,1.3964196800939845
0.0011758495540521582,1.2061587340873616
0.0013049019780144017,0.9357849447501534
0.001448118227674533,0.6668256049435378
0.0016070528182616384,0.4256997468256726
0.0017834308769319094,0.22237961859869235
0.0019791668678535573,0.07984541858000554
0.002196385372416547,0.014326113142807547
0.002437444150122222,0.0023185190755898783
0.002704959730463137,0.005317844110407548
0.0030018358135755923,0.005391173058016769
0.003331294787934677,0.00313291865652688
0.0036969127071950323,0.002605936079102646
0.00410265810582719,0.004879602840789946
0.004552935074866948,0.004917709049325315
0.00505263106533568,-0.0028849048282272092
0.005607169938205458,0.006162605109897051
0.006222570836730231,0.11182896107436716
0.006905513520162331,0.3952291254195591
0.007663410868007463,0.8520821147170046
0.008504489341802686,1.3856174316391152
0.009437878277775391,1.7992657870275661
0.010473708979594508,1.8481277962334386
0.011623224686798541,1.4982206993310474
0.01289890261253308,0.9689296238989606
0.014314589375234785,0.47674683884781927
0.015885651294280528,0.14426555366705537
0.01762914118095948,0.003162070162522945
0.01956398343517065,-0.017188494526369464
0.021711179456945052,-0.008176459629156484
0.02409403560239527,-0.006446592348147844
0.026738416158399492,-0.008754635659053645
0.029673024081888724,-0.009140115406148822
0.032929712550971546,-0.008137184241834771
0.036543830709572546,-0.007321223327714045
0.040554607358408275,-0.006806010839078202
0.04500557675700498,-0.006220194636446463
0.0499450511585514,-0.005491593500888771
0.05542664520663107,-0.00469217352546326
0.06150985788580504,-0.0038624418621346574
0.06826071834272393,-0.00300052344976235
0.0757525025877192,-0.0021124206940744176
0.08406652885618333,-0.0012264179698372045
0.09329304026284696,-0.0003634472245641878
0.10353218432956637,0.00044560707155825606
0.11489510001873086,0.0011796560620962232
0.1275051240713013,0.0018131586652293502
0.1414991297434576,0.0023230332896469947
0.15702901247293774,0.002696284311197465
0.17426333860096507,0.0029161604781874737
0.19338917504552322,0.002983390528901973
0.21461411978584058,0.002896196719799864
0.23816855519761607,0.002665294376383648
0.2643081486974108,0.0023071166295608697
0.29331662783900486,0.0018386163732628416
0.32550885998350565,0.001288754492432038
0.36123426997094304,0.0006794006811953494
0.40088063288984643,4.1960416220113854e-05
0.4448782831127585,-0.0005973105377122174
0.4937047852839004,-0.0012125868432398092
0.5478901179593945,-0.0017761490835562618
0.6080224261649427,-0.002270574588748737
0.67475440531107,-0.0026729542273389844
0.748810385759003,-0.0029731396778129786
0.8309941949353403,-0.003159991569829502
0.9221978823334341,-0.0032291545914501308
1.0234114021054528,-0.0031844422142410234
1.135733358343105,-0.0030279970890524856
1.2603829296797273,-0.0027756163802798764
1.3987131026472386,-0.002437936863963024
1.552225357427048,-0.0020358588346643058
1.7225859653987874,-0.001588472125558148
1.9116440753857036,-0.0011156810592582067
2.121451784910632,-0.000640804534572517
2.35428641432242,-0.00018008086742143814
2.612675225563332,0.00024599062204569503
2.8994228538828812,0.0006251028285540463
3.2176417502507353,0.0009455262513361193
3.5707859649004625,0.0011992480672964006
3.9626886387014784,0.0013848346089057478
4.397603609302721,0.0014999311237480616
4.880251583654434,0.0015505482029237133
5.415871378079476,0.0015409567142349039
6.010276782070388,0.0014803393686592492
6.669919663030129,0.001378517190850136
7.401959996915652,0.0012449118926847558
8.214343584919439,0.0010917332330995764
9.115888299750837,0.000927504251604477
10.11637979766207,0.000762997286114954
11.226677735108158,0.0006053996440803159
12.458833642950081,0.00046142146749750615
13.826221737646593,0.00033515616897981243
15.343684089300131,0.00022676039648359672
17.02769172225898,0.00013667565614165818
18.896523396912116,6.778853502932133e-05
20.970464013232306,2.5299861145977358e-05
23.27202478960412,6.665458231614268e-06
25.826187606826746,1.1981600765673535e-06
28.66067616948256,1.4468387988136019e-07
31.80625692794119,1.1659223045459345e-08
35.297073027306574,6.252797127260391e-10
39.17101490809261,2.2291997986896203e-11
43.47013158125035,5.280760422618371e-13
48.241087041653735,8.310685633326148e-15
53.535666774107185,8.688360062967894e-17
59.411339849650396,6.033735040968427e-19
65.93188271333541,2.783407713388821e-21
73.16807143427206,8.529183120302237e-24
81.19844993184009,1.736109859905673e-26
90.11018251665037,2.3473928067124103e-29
100.0,2.108302840853701e-32
