tau,gamma
1e-07,3.3264601956334464e-06
1.1097524964120721e-07,1.7027726244081055e-05
1.2315506032928263e-07,5.8899701446121266e-05
1.3667163564620074e-07,0.00014088179452253317
1.5167168884709241e-07,0.0002444224457043368
1.6831803533309585e-07,0.00033347580064090266
1.867913599020781e-07,0.00039372629139306517
2.0729217795953698e-07,0.0004323169499640401
2.300430119772917e-07,0.00046038349428155484
2.5529080682395163e-07,0.0004875603469769016
2.833096101839324e-07,0.0005218567869013567
3.1440354715915e-07,0.0005724354117942576
3.489101213406774e-07,0.0006474240483108823
3.872038781812557e-07,0.0007523558368480022
4.2970047043208437e-07,0.0008901482338683046
4.768611697714474e-07,0.001061765986069503
5.291978735958437e-07,0.0012609985332242626
5.872786613189477e-07,0.0014721011872535212
6.517339604882421e-07,0.0016661930300846193
7.232633896483533e-07,0.0018227971639214453
8.026433522257174e-07,0.0019341988484237582
8.907354638610439e-07,0.001988352645842201
9.884959046625586e-07,0.0019689373501847927
1.096985797892384e-06,0.001859846410235542
1.217382727739662e-06,0.001674881554950941
1.3509935211980278e-06,0.00143497631289244
1.499268432786047e-06,0.00114848634464853
1.6638168860761274e-06,0.0008410375190689691
1.8464249428955464e-06,0.0006214602109843968
2.049074689815846e-06,0.0006776269163893747
2.2739657523579273e-06,0.0010672854920917073
2.523539170434766e-06,0.0016172869258303292
2.800503894183631e-06,0.00214241778981284
3.107866187782014e-06,0.002589224885866035
3.4489622604057595e-06,0.00296198925684801
3.827494478516315e-06,0.0032609374636237125
4.247571552536894e-06,0.0034635083620267525
4.713753134116729e-06,0.0035632635802922102
5.2310993080562585e-06,0.003565080355835336
5.805225516094895e-06,0.003478077602322786
6.44236350872137e-06,0.0033202707813004702
7.149428986597577e-06,0.0031051440845525453
7.934096665797492e-06,0.0028583174391244833
8.804883581643465e-06,0.002603364879572961
9.771241535346501e-06,0.0023742527517906973
1.0843659686896109e-05,0.002206718978822822
1.2033778407775906e-05,0.002132497394611146
1.3354515629298974e-05,0.0021818534451483276
1.48202070579886e-05,0.002374470158148188
1.6446761779946626e-05,0.0027223071424372016
1.8251834943190462e-05,0.0032381765758231263
2.0255019392306664e-05,0.003931867299489739
2.2478058335487252e-05,0.004817320241117201
2.4945081352303165e-05,0.005905821363036454
2.7682866303920665e-05,0.007207774442120776
3.072112998861759e-05,0.008739056919202591
3.409285069746814e-05,0.010505141142535021
3.783462617131933e-05,0.012529564223040612
4.1987070844439056e-05,0.014817603943392597
4.659525668664687e-05,0.017399908451910206
5.170920242896755e-05,0.020290407368716096
5.7384416483024044e-05,0.023520346658432334
6.368249944718586e-05,0.027119815127550028
7.067181273927492e-05,0.031118437988093557
7.842822061337681e-05,0.03558280014799814
8.703591361485166e-05,0.040549547771400664
9.658832241158708e-05,0.04612093118094319
0.00010718913192051276,0.052345284950080485
0.00011895340673703195,0.05936441109033798
0.0001320088400831418,0.06726901685559132
0.00014649713983072864,0.0762311731741644
0.0001625755666443795,0.08639610967242217
0.00018041864093920718,0.09793676986293942
0.00020022003718155845,0.11105035252273429
0.0002221946860939524,0.12585463681252324
0.0002465811075822604,0.1425480127857307
0.0002736439997074672,0.1610968179047792
0.00030367711180354605,0.18160844443425664
0.00033700643292719284,0.2038170572447587
0.0003739937302478798,0.2276482793662945
0.0004150404757850477,0.2526440738997188
0.00046059220411451084,0.27843599191147733
0.0005111433483440171,0.30447927840051725
0.0005672426068491978,0.3300442668707731
0.0006294988990221888,0.35466363497041153
0.0006985879746785249,0.3773330287201233
0.0007752597488629464,0.39772600046056616
0.000860346441668451,0.41485607102887007
0.0009547716114208065,0.4286148235721127
0.001059560179277617,0.4385712919563299
0.0011758495540521582,0.44485838600193356
0.0013049019780144017,0.44788762987588365
0.001448118227674533,0.44791120107832344
0.0016070528182616384,0.44582220602698747
0.0017834308769319094,0.4418398300180532
0.0019791668678535573,0.4369143100974254
0.002196385372416547,0.43121982477814813
0.002437444150122222,0.42549872404501365
0.002704959730463137,0.4199247769321214
0.0030018358135755923,0.41490684641397535
0.003331294787934677,0.41062493182929183
0.0036969127071950323,0.4071301474562351
0.00410265810582719,0.40458821017849983
0.004552935074866948,0.4027314427014104
0.00505263106533568,0.40168142161833614
0.005607169938205458,0.4009296074388809
0.006222570836730231,0.40051013578739086
0.006905513520162331,0.39978765274359424
0.007663410868007463,0.3986505484231469
0.008504489341802686,0.3964871064218947
0.009437878277775391,0.3929895237543446
0.010473708979594508,0.3877353029901677
0.011623224686798541,0.380246144595218
0.01289890261253308,0.3704389652167923
0.014314589375234785,0.35784139481593935
0.015885651294280528,0.3427878204243939
0.01762914118095948,0.32508555286369645
0.01956398343517065,0.3053354058009249
0.021711179456945052,0.28377259823499795
0.02409403560239527,0.2609890757562582
0.026738416158399492,0.23754947779340585
0.029673024081888724,0.21387921697870751
0.032929712550971546,0.1906564518644791
0.036543830709572546,0.1681532741395669
0.040554607358408275,0.14696096609335488
0.04500557675700498,0.1272726162747139
0.0499450511585514,0.10945385473857033
0.05542664520663107,0.09363613185815955
0.06150985788580504,0.07990637839786317
0.06826071834272393,0.06826277011601886
0.0757525025877192,0.05852098976005544
0.08406652885618333,0.05047710265250087
0.09329304026284696,0.043835819951121714
0.10353218432956637,0.038370125322480714
0.11489510001873086,0.03383375052238772
0.1275051240713013,0.030077159262502713
0.1414991297434576,0.026943441622451488
0.15702901247293774,0.024337875920938848
0.17426333860096507,0.022162150616209624
0.19338917504552322,0.02035230526125492
0.21461411978584058,0.018848594418881728
0.23816855519761607,0.017600316320641667
0.2643081486974108,0.01656644898508343
0.29331662783900486,0.01570197903981714
0.32550885998350565,0.014979324148356487
0.36123426997094304,0.0143581618867835
0.40088063288984643,0.013820380713983142
0.4448782831127585,0.013329992770736212
0.4937047852839004,0.012873677546369755
0.5478901179593945,0.012421269340573022
0.6080224261649427,0.011961087502061485
0.67475440531107,0.011473036652866545
0.748810385759003,0.01094545491654608
0.8309941949353403,0.010371693691282135
0.9221978823334341,0.009740471494870053
1.0234114021054528,0.009057597068188851
1.135733358343105,0.008315031785880408
1.2603829296797273,0.00752622881123306
1.3987131026472386,0.006691735006127307
1.552225357427048,0.005829523402108018
1.7225859653987874,0.004954370366110114
1.9116440753857036,0.00408575417456064
2.121451784910632,0.0032487459360335184
2.35428641432242,0.0024566678979789005
2.612675225563332,0.001735089290707064
2.8994228538828812,0.001119598491112626
3.2176417502507353,0.0006695651018314074
3.5707859649004625,0.00040376967535611733
3.9626886387014784,0.0002634785581414327
4.397603609302721,0.00017996591972727356
4.880251583654434,0.00012311573474056922
5.415871378079476,8.817031165551692e-05
6.010276782070388,7.087614480649625e-05
6.669919663030129,6.38988094069479e-05
7.401959996915652,6.1752028703862e-05
8.214343584919439,6.158651464705103e-05
9.115888299750837,6.209189135734561e-05
10.11637979766207,6.272903827687915e-05
11.226677735108158,6.312610060706287e-05
12.458833642950081,6.28676131494358e-05
13.826221737646593,6.0532832370215e-05
15.343684089300131,5.3354240893362784e-05
17.02769172225898,3.930154742119413e-05
18.896523396912116,2.1951332699324454e-05
20.970464013232306,8.68469143111133e-06
23.27202478960412,2.347775487601193e-06
25.826187606826746,4.26621118376778e-07
28.66067616948256,5.174636069366746e-08
31.80625692794119,4.177497701141541e-09
35.297073027306574,2.2420240412363143e-10
39.17101490809261,7.99547547091739e-12
43.47013158125035,1.8942798899006758e-13
48.241087041653735,2.9813004362179193e-15
53.535666774107185,3.1168455543127575e-17
59.411339849650396,2.1645478013359907e-19
65.93188271333541,9.985255419726984e-22
73.16807143427206,3.059781115285559e-24
81.19844993184009,6.228168519472726e-27
90.11018251665037,8.421103674036305e-30
100.0,7.56338619201371e-33
