tau,gamma
1e-07,2.3630347810999257e-06
1.1097524964120721e-07,1.2167522705945654e-05
1.2315506032928263e-07,4.268087895951159e-05
1.3667163564620074e-07,0.0001053550361643489
1.5167168884709241e-07,0.00019476166264017767
1.6831803533309585e-07,0.0002952701888360341
1.867913599020781e-07,0.00040014752920865444
2.0729217795953698e-07,0.0005103998604942317
2.300430119772917e-07,0.0006281882891994651
2.5529080682395163e-07,0.0007519196237314329
2.833096101839324e-07,0.0008788562014940992
3.1440354715915e-07,0.0010065584835235162
3.489101213406774e-07,0.0011311110557840254
3.872038781812557e-07,0.0012502905276128094
4.2970047043208437e-07,0.001359226576462884
4.768611697714474e-07,0.0014558229175398762
5.291978735958437e-07,0.0015359985835980976
5.872786613189477e-07,0.001597378382378183
6.517339604882421e-07,0.0016376182549978204
7.232633896483533e-07,0.0016538980681642186
8.026433522257174e-07,0.001646158350263813
8.907354638610439e-07,0.0016118292099058969
9.884959046625586e-07,0.0015524425005076165
1.096985797892384e-06,0.0014667291450606173
1.217382727739662e-06,0.0013568355725944814
1.3509935211980278e-06,0.0012239817933802643
1.499268432786047e-06,0.0010705537012520904
1.6638168860761274e-06,0.0009006926062099153
1.8464249428955464e-06,0.0007168148108640282
2.049074689815846e-06,0.000524282966538924
2.2739657523579273e-06,0.0003261014715683535
2.523539170434766e-06,0.00012784684830549636
2.800503894183631e-06,-6.613026520302724e-05
3.107866187782014e-06,-0.00025168675721968397
3.4489622604057595e-06,-0.0004240539853913594
3.827494478516315e-06,-0.0005810606442980512
4.247571552536894e-06,-0.0007188562013262073
4.713753134116729e-06,-0.0008363797806348663
5.2310993080562585e-06,-0.0009316426912217555
5.805225516094895e-06,-0.0010044110422786391
6.44236350872137e-06,-0.001056018296658259
7.149428986597577e-06,-0.001087286789903823
7.934096665797492e-06,-0.0011017727237355834
8.804883581643465e-06,-0.001101211378277298
9.771241535346501e-06,-0.0010899574874217884
1.0843659686896109e-05,-0.001070857160515544
1.2033778407775906e-05,-0.0010481097697521125
1.3354515629298974e-05,-0.001025397265645069
1.48202070579886e-05,-0.0010058114101387532
1.6446761779946626e-05,-0.0009924338134728982
1.8251834943190462e-05,-0.000987029911966862
2.0255019392306664e-05,-0.0009918766927398581
2.2478058335487252e-05,-0.0010078106390300203
2.4945081352303165e-05,-0.0010363771305026879
2.7682866303920665e-05,-0.0010776126748413114
3.072112998861759e-05,-0.001132395421535447
3.409285069746814e-05,-0.001200090225777798
3.783462617131933e-05,-0.0012813938293399615
4.1987070844439056e-05,-0.0013757589415827661
4.659525668664687e-05,-0.0014835469230190875
5.170920242896755e-05,-0.0016042748748445231
5.7384416483024044e-05,-0.001737258206885068
6.368249944718586e-05,-0.001882029393738269
7.067181273927492e-05,-0.002036238819031664
7.842822061337681e-05,-0.0021993823026005147
8.703591361485166e-05,-0.0023673762244156914
9.658832241158708e-05,-0.0025394122525541586
0.00010718913192051276,-0.00270967076526973
0.00011895340673703195,-0.0028743469181389406
0.0001320088400831418,-0.0030268638966604727
0.00014649713983072864,-0.003167203711694743
0.0001625755666443795,-0.003295896424036667
0.00018041864093920718,-0.003390437668365979
0.00020022003718155845,-0.0034188420812561633
0.0002221946860939524,-0.00342038672226537
0.0002465811075822604,-0.0035435807184053167
0.0002736439997074672,-0.0036719756159594736
0.00030367711180354605,-0.0031103265587604702
0.00033700643292719284,-0.0018577343335361206
0.0003739937302478798,-0.0026028689855843432
0.0004150404757850477,-0.005748013398101003
0.00046059220411451084,0.005698683758280097
0.0005111433483440171,0.06805602951199727
0.0005672426068491978,0.20464276070917817
0.0006294988990221888,0.4048908957702295
0.0006985879746785249,0.6515589039379155
0.0007752597488629464,0.9320289330543037
0.000860346441668451,1.2127526141063645
0.0009547716114208065,1.4074279963626575
0.001059560179277617,1.4085696259433267
0.0011758495540521582,1.219226473501111
0.0013049019780144017,0.9486755442019276
0.001448118227674533,0.6787152550011871
0.0016070528182616384,0.4355531216730837
0.0017834308769319094,0.2292618143828254
0.0019791668678535573,0.0838947253949689
0.002196385372416547,0.016698700454748937
0.002437444150122222,0.00405956337362792
0.002704959730463137,0.006824735449655078
0.0030018358135755923,0.006726932368634645
0.003331294787934677,0.004321798891647918
0.0036969127071950323,0.003565882574895041
0.00410265810582719,0.005410327614926641
0.004552935074866948,0.005217020654464122
0.00505263106533568,-0.002187427330521663
0.005607169938205458,0.005112682145515131
0.006222570836730231,0.09919398116370359
0.006905513520162331,0.35782757181211927
0.007663410868007463,0.7904521590351805
0.008504489341802686,1.3214294973149165
0.009437878277775391,1.760182266482925
0.010473708979594508,1.852081684693247
0.011623224686798541,1.5454948626969938
0.01289890261253308,1.0377600487856284
0.014314589375234785,0.5377956872547119
0.015885651294280528,0.18389045105582716
0.01762914118095948,0.025067591073405438
0.01956398343517065,-0.004979806652860624
0.021711179456945052,-0.00036732469581158373
0.02409403560239527,-0.0006276725776512485
0.026738416158399492,-0.004154628953147635
0.029673024081888724,-0.005625054663635526
0.032929712550971546,-0.005668213833248625
0.036543830709572546,-0.005851921232163813
0.040554607358408275,-0.0063023424963097145
0.04500557675700498,-0.006675339549802069
0.0499450511585514,-0.006904850194700055
0.05542664520663107,-0.0070579401416556945
0.06150985788580504,-0.007168907913661691
0.06826071834272393,-0.007217221724245723
0.0757525025877192,-0.007198090507310826
0.08406652885618333,-0.007112592867077619
0.09329304026284696,-0.006964761174112696
0.10353218432956637,-0.006760162235901534
0.11489510001873086,-0.006497333459184999
0.1275051240713013,-0.00618688401947737
0.1414991297434576,-0.0058281835520167585
0.15702901247293774,-0.005432987211501875
0.17426333860096507,-0.005003033954591814
0.19338917504552322,-0.004547585544336948
0.21461411978584058,-0.004072191808547033
0.23816855519761607,-0.003582326073205745
0.2643081486974108,-0.0030864994431095897
0.29331662783900486,-0.002587393039296092
0.32550885998350565,-0.002094305602469261
0.36123426997094304,-0.0016094907069565394
0.40088063288984643,-0.0011408312819128413
0.4448782831127585,-0.0006922607995030584
0.4937047852839004,-0.00026914629112856055
0.5478901179593945,0.00012230793364771886
0.6080224261649427,0.000478881995070376
0.67475440531107,0.0007934028212516917
0.748810385759003,0.0010634931054192783
0.8309941949353403,0.00128349600221961
0.9221978823334341,0.0014508180204208503
1.0234114021054528,0.0015635128415785056
1.135733358343105,0.0016190348366319919
1.2603829296797273,0.0016196471612769663
1.3987131026472386,0.0015645331985993077
1.552225357427048,0.0014588354204302717
1.7225859653987874,0.0013053904265060833
1.9116440753857036,0.0011102951550540732
2.121451784910632,0.0008805855300996958
2.35428641432242,0.0006222724515309593
2.612675225563332,0.0003450921734412726
2.8994228538828812,5.527877907533496e-05
3.2176417502507353,-0.000237359414083392
3.5707859649004625,-0.0005255600885994425
3.9626886387014784,-0.0008016297932291114
4.397603609302721,-0.0010572566988394645
4.880251583654434,-0.0012874967146551289
5.415871378079476,-0.0014842789144157325
6.010276782070388,-0.001644461119123813
6.669919663030129,-0.0017622172643098058
7.401959996915652,-0.0018350406872638671
8.214343584919439,-0.001860925991164181
9.115888299750837,-0.0018368424771346107
10.11637979766207,-0.001763635964030267
11.226677735108158,-0.0016401780858846557
12.458833642950081,-0.0014726582051833995
13.826221737646593,-0.001259143561197227
15.343684089300131,-0.0009913888796498377
17.02769172225898,-0.0006730300960057396
18.896523396912116,-0.0003591451430072472
20.970464013232306,-0.0001390608798632861
23.27202478960412,-3.724388284460713e-05
25.826187606826746,-6.741455722007931e-06
28.66067616948256,-8.163950771900986e-07
31.80625692794119,-6.586518013502907e-08
35.297073027306574,-3.533995734734995e-09
39.17101490809261,-1.2601548419772928e-10
43.47013158125035,-2.9854175821343813e-12
48.241087041653735,-4.6984987948422624e-14
53.535666774107185,-4.912081889810913e-16
59.411339849650396,-3.4112712815220585e-18
65.93188271333541,-1.573648579576517e-20
73.16807143427206,-4.822127981463532e-23
81.19844993184009,-9.815414528044485e-26
90.11018251665037,-1.3271416269410652e-28
100.0,-1.191967791117275e-31
