tau,gamma
1e-07,3.986389297577508e-05
1.1097524964120721e-07,0.00020459622031003408
1.2315506032928263e-07,0.0007121671066121634
1.3667163564620074e-07,0.0017279311246269952
1.5167168884709241e-07,0.0030870749744978474
1.6831803533309585e-07,0.00442826927299916
1.867913599020781e-07,0.00559190726011605
2.0729217795953698e-07,0.0066070131406479665
2.300430119772917e-07,0.007531132973993003
2.5529080682395163e-07,0.008376954388444734
2.833096101839324e-07,0.009131436777429598
3.1440354715915e-07,0.009794890644148888
3.489101213406774e-07,0.010353489280596902
3.872038781812557e-07,0.010816697090414098
4.2970047043208437e-07,0.011178323781498275
4.768611697714474e-07,0.011455116110988177
5.291978735958437e-07,0.011658015795462452
5.872786613189477e-07,0.011800913736845853
6.517339604882421e-07,0.011899738753553244
7.232633896483533e-07,0.011962843314407919
8.026433522257174e-07,0.012016651313141847
8.907354638610439e-07,0.012071700656997265
9.884959046625586e-07,0.012158403073907554
1.096985797892384e-06,0.012290923559522927
1.217382727739662e-06,0.012502581540638028
1.3509935211980278e-06,0.012818281412573442
1.499268432786047e-06,0.013277212529089127
1.6638168860761274e-06,0.013915467406223226
1.8464249428955464e-06,0.014763388973729235
2.049074689815846e-06,0.015838685713117383
2.2739657523579273e-06,0.01714547861320756
2.523539170434766e-06,0.018683933716766285
2.800503894183631e-06,0.020441511215049262
3.107866187782014e-06,0.022437016400140553
3.4489622604057595e-06,0.024664129732248616
3.827494478516315e-06,0.027148341837782464
4.247571552536894e-06,0.029876394815172486
4.713753134116729e-06,0.03287879888428726
5.2310993080562585e-06,0.03615978672518629
5.805225516094895e-06,0.039745248841043315
6.44236350872137e-06,0.04364907066256101
7.149428986597577e-06,0.0478616561389782
7.934096665797492e-06,0.052390011098229626
8.804883581643465e-06,0.057180899366529384
9.771241535346501e-06,0.06226954591484275
1.0843659686896109e-05,0.06760233382909113
1.2033778407775906e-05,0.07323251233366099
1.3354515629298974e-05,0.0791124196909043
1.48202070579886e-05,0.08526396674466513
1.6446761779946626e-05,0.09163982184035448
1.8251834943190462e-05,0.09820663119758256
2.0255019392306664e-05,0.10496224829322345
2.2478058335487252e-05,0.11181457799607444
2.4945081352303165e-05,0.1187912693893189
2.7682866303920665e-05,0.12573828283794983
3.072112998861759e-05,0.13269902872630024
3.409285069746814e-05,0.13950344314322569
3.783462617131933e-05,0.14616640225951352
4.1987070844439056e-05,0.15254255945967957
4.659525668664687e-05,0.15857132124687925
5.170920242896755e-05,0.16417632461871148
5.7384416483024044e-05,0.1692050177966027
6.368249944718586e-05,0.17367224691323274
7.067181273927492e-05,0.17736307569032753
7.842822061337681e-05,0.18036643028567118
8.703591361485166e-05,0.1824771333302375
9.658832241158708e-05,0.1838061228896738
0.00010718913192051276,0.1842401215830869
0.00011895340673703195,0.18385127210198424
0.0001320088400831418,0.1826690647122233
0.00014649713983072864,0.1807114052691464
0.0001625755666443795,0.17816595491810797
0.00018041864093920718,0.1750138862741617
0.00020022003718155845,0.1715172595830707
0.0002221946860939524,0.16765429043818947
0.0002465811075822604,0.1636943628522599
0.0002736439997074672,0.159668743400817
0.00030367711180354605,0.1557831858394114
0.00033700643292719284,0.15212420355172498
0.0003739937302478798,0.1488015655164391
0.0004150404757850477,0.1459433805135857
0.00046059220411451084,0.14357090582052406
0.0005111433483440171,0.14182841166415877
0.0005672426068491978,0.14067528166479937
0.0006294988990221888,0.14025000707478455
0.0006985879746785249,0.1404829796850161
0.0007752597488629464,0.1414900696345366
0.000860346441668451,0.14320469497048458
0.0009547716114208065,0.14570850603387733
0.001059560179277617,0.14896790367586202
0.0011758495540521582,0.1530151999919234
0.0013049019780144017,0.15786326954465896
0.001448118227674533,0.1634735328262933
0.0016070528182616384,0.16989826541891756
0.0017834308769319094,0.17702257063257198
0.0019791668678535573,0.18494046859726032
0.002196385372416547,0.19346790723378599
0.002437444150122222,0.2026622157844724
0.002704959730463137,0.2122608100999597
0.0030018358135755923,0.2222495314842568
0.003331294787934677,0.2323840451866342
0.0036969127071950323,0.24252879702771965
0.00410265810582719,0.2525039917789173
0.004552935074866948,0.26200085443471166
0.00505263106533568,0.27092499424249317
0.005607169938205458,0.27882260661306957
0.006222570836730231,0.2856962721990515
0.006905513520162331,0.29107379159854907
0.007663410868007463,0.29498661840395446
0.008504489341802686,0.29709315024021404
0.009437878277775391,0.29738507165585015
0.010473708979594508,0.2957943163113844
0.011623224686798541,0.29223114789077476
0.01289890261253308,0.2868997205478326
0.014314589375234785,0.27966409340772497
0.015885651294280528,0.27091951556156313
0.01762914118095948,0.26058447145354935
0.01956398343517065,0.2490728062153221
0.021711179456945052,0.23643088735727394
0.02409403560239527,0.22297821005776583
0.026738416158399492,0.20893692023243862
0.029673024081888724,0.19449516757909502
0.032929712550971546,0.18000009715676468
0.036543830709572546,0.16554257630540706
0.040554607358408275,0.15149745278229995
0.04500557675700498,0.1379266895117978
0.0499450511585514,0.12513533443101724
0.05542664520663107,0.11319639676738576
0.06150985788580504,0.10227623427292014
0.06826071834272393,0.09243819114736163
0.0757525025877192,0.08369809976257422
0.08406652885618333,0.07606707312415088
0.09329304026284696,0.0694490215250642
0.10353218432956637,0.06379052658104421
0.11489510001873086,0.05892162386286249
0.1275051240713013,0.05472368141866016
0.1414991297434576,0.05099093796075451
0.15702901247293774,0.04759989377322434
0.17426333860096507,0.044377338685787644
0.19338917504552322,0.04124184303159582
0.21461411978584058,0.03811091608157786
0.23816855519761607,0.03496105391186061
0.2643081486974108,0.031817953417640696
0.29331662783900486,0.028691686968226177
0.32550885998350565,0.02565466135429907
0.36123426997094304,0.022738045461011134
0.40088063288984643,0.02003664034181455
0.4448782831127585,0.01760559382775812
0.4937047852839004,0.015514065866301491
0.5478901179593945,0.013808242419072456
0.6080224261649427,0.012510737710289344
0.67475440531107,0.011628112680118402
0.748810385759003,0.01112626430426373
0.8309941949353403,0.010943332548742283
0.9221978823334341,0.010995524583407338
1.0234114021054528,0.011179030462681292
1.135733358343105,0.01138211300781062
1.2603829296797273,0.011507002142849668
1.3987131026472386,0.011460232318231286
1.552225357427048,0.011218500024576616
1.7225859653987874,0.010765390674671887
1.9116440753857036,0.010122085166732044
2.121451784910632,0.0093189328535016
2.35428641432242,0.00840155415728576
2.612675225563332,0.007444800902314015
2.8994228538828812,0.006508034181758885
3.2176417502507353,0.005664132412448426
3.5707859649004625,0.0049548777104587525
3.9626886387014784,0.0044001830549048925
4.397603609302721,0.0039924020530118015
4.880251583654434,0.003697200041356824
5.415871378079476,0.003468207048714245
6.010276782070388,0.0032713478836097283
6.669919663030129,0.0030829047235666858
7.401959996915652,0.002890414201299557
8.214343584919439,0.002696537849859763
9.115888299750837,0.0025166447944915352
10.11637979766207,0.0023862889815955937
11.226677735108158,0.002321284813906905
12.458833642950081,0.0023003887932067165
13.826221737646593,0.002287747872687239
15.343684089300131,0.002264897855826886
17.02769172225898,0.0022224949368307764
18.896523396912116,0.0021614695358920374
20.970464013232306,0.0020866251431056297
23.27202478960412,0.002002037969471258
25.826187606826746,0.001913251357643904
28.66067616948256,0.001821920255694948
31.80625692794119,0.0017317881058776497
35.297073027306574,0.0016430493770352283
39.17101490809261,0.0015583764432358378
43.47013158125035,0.0014781136921764274
48.241087041653735,0.0014037621461407662
53.535666774107185,0.0013358446174810096
59.411339849650396,0.0012746553770036073
65.93188271333541,0.0012200464556115114
73.16807143427206,0.0011686447736305701
81.19844993184009,0.0011164479687552145
90.11018251665037,0.0010614163511389512
100.0,0.001009412194485298
