tau,gamma
1e-07,3.9088272106986675e-06
1.1097524964120721e-07,2.0088463222306055e-05
1.2315506032928263e-07,7.014722605773325e-05
1.3667163564620074e-07,0.0001714122631498177
1.5167168884709241e-07,0.00031059143389546614
1.6831803533309585e-07,0.00045575029017035025
1.867913599020781e-07,0.0005917752958109662
2.0729217795953698e-07,0.0007189065715169646
2.300430119772917e-07,0.0008403710545923254
2.5529080682395163e-07,0.0009554150827485264
2.833096101839324e-07,0.001061493443733773
3.1440354715915e-07,0.0011578425389660082
3.489101213406774e-07,0.0012420228265746717
3.872038781812557e-07,0.0013139499535964744
4.2970047043208437e-07,0.001370947497465497
4.768611697714474e-07,0.001412639826588536
5.291978735958437e-07,0.001437130608256605
5.872786613189477e-07,0.0014434049602176885
6.517339604882421e-07,0.0014309985629841692
7.232633896483533e-07,0.0013982974680148128
8.026433522257174e-07,0.0013462180733070127
8.907354638610439e-07,0.001273103618660577
9.884959046625586e-07,0.001180426345066035
1.096985797892384e-06,0.0010673529917699254
1.217382727739662e-06,0.0009353216494007794
1.3509935211980278e-06,0.0007852699511657675
1.499268432786047e-06,0.0006182022384319968
1.6638168860761274e-06,0.0004367015230618074
1.8464249428955464e-06,0.00024153964843566227
2.049074689815846e-06,3.6117176747105877e-05
2.2739657523579273e-06,-0.00017822367852334174
2.523539170434766e-06,-0.0003982855290636423
2.800503894183631e-06,-0.0006215134354831812
3.107866187782014e-06,-0.0008459129941379263
3.4489622604057595e-06,-0.001067942075568691
3.827494478516315e-06,-0.0012867597189824326
4.247571552536894e-06,-0.0014985890047002012
4.713753134116729e-06,-0.0017029376226595395
5.2310993080562585e-06,-0.0018969950540461467
5.805225516094895e-06,-0.0020797078327785693
6.44236350872137e-06,-0.0022501502163443476
7.149428986597577e-06,-0.002406166046789609
7.934096665797492e-06,-0.00254855894122309
8.804883581643465e-06,-0.0026741873308905916
9.771241535346501e-06,-0.0027846641635281876
1.0843659686896109e-05,-0.002876688315306517
1.2033778407775906e-05,-0.0029512780357999592
1.3354515629298974e-05,-0.003005864930765838
1.48202070579886e-05,-0.003039537081559856
1.6446761779946626e-05,-0.003050891149296068
1.8251834943190462e-05,-0.0030365164462789656
2.0255019392306664e-05,-0.002996060054785098
2.2478058335487252e-05,-0.0029240123269156
2.4945081352303165e-05,-0.002820011410795231
2.7682866303920665e-05,-0.002677529169645522
3.072112998861759e-05,-0.002494676824155824
3.409285069746814e-05,-0.0022652517741119558
3.783462617131933e-05,-0.00198448741682896
4.1987070844439056e-05,-0.0016472986401519737
4.659525668664687e-05,-0.0012455270938763541
5.170920242896755e-05,-0.0007746566829520737
5.7384416483024044e-05,-0.00022348247366619966
6.368249944718586e-05,0.0004142356632499414
7.067181273927492e-05,0.00115041716696695
7.842822061337681e-05,0.0019940819076859993
8.703591361485166e-05,0.002958829438623081
9.658832241158708e-05,0.004068079739709316
0.00010718913192051276,0.0053327942816831925
0.00011895340673703195,0.00675115983514235
0.0001320088400831418,0.008326577161002434
0.00014649713983072864,0.010195577574391355
0.0001625755666443795,0.0125008447640977
0.00018041864093920718,0.014973294276337992
0.00020022003718155845,0.017218931101296867
0.0002221946860939524,0.021277678132370602
0.0002465811075822604,0.03376898468858158
0.0002736439997074672,0.06091110299863667
0.00030367711180354605,0.10071941007835249
0.00033700643292719284,0.14626478114685693
0.0003739937302478798,0.19379524596121217
0.0004150404757850477,0.24217082707522514
0.00046059220411451084,0.2911604682417857
0.0005111433483440171,0.33956589738753296
0.0005672426068491978,0.38591932858574385
0.0006294988990221888,0.42898191465157803
0.0006985879746785249,0.4667658591278267
0.0007752597488629464,0.49809252987808933
0.000860346441668451,0.5210223823991816
0.0009547716114208065,0.5357290266518028
0.001059560179277617,0.5426446547558619
0.0011758495540521582,0.5430453245465195
0.0013049019780144017,0.538722671354498
0.001448118227674533,0.5308597481597706
0.0016070528182616384,0.5211475405431897
0.0017834308769319094,0.5102447006226674
0.0019791668678535573,0.49953032040707707
0.002196385372416547,0.48945654516584663
0.002437444150122222,0.4809719706144078
0.002704959730463137,0.4743824373284667
0.0030018358135755923,0.47014550674309113
0.003331294787934677,0.468415205115474
0.0036969127071950323,0.4691695677845212
0.00410265810582719,0.4723955891889458
0.004552935074866948,0.4776122961364642
0.00505263106533568,0.48464095492204134
0.005607169938205458,0.4925692913522906
0.006222570836730231,0.5010370784941571
0.006905513520162331,0.5087758844464576
0.007663410868007463,0.5151473276502654
0.008504489341802686,0.518665426439462
0.009437878277775391,0.5182310620678726
0.010473708979594508,0.5123473914234034
0.011623224686798541,0.499487094464106
0.01289890261253308,0.4788267414486195
0.014314589375234785,0.44967930302604764
0.015885651294280528,0.4137667141345037
0.01762914118095948,0.3722769939963729
0.01956398343517065,0.3271549935778628
0.021711179456945052,0.2797793129290537
0.02409403560239527,0.2315639275250474
0.026738416158399492,0.18385221941182822
0.029673024081888724,0.1368902076130108
0.032929712550971546,0.09173635386673791
0.036543830709572546,0.051875367720914486
0.040554607358408275,0.024243761383049765
0.04500557675700498,0.011546971871627794
0.0499450511585514,0.007905922907257851
0.05542664520663107,0.006347726849414115
0.06150985788580504,0.004478296093079515
0.06826071834272393,0.002667096129104341
0.0757525025877192,0.0012491282653690591
0.08406652885618333,0.00010435073931700138
0.09329304026284696,-0.0009086064191621413
0.10353218432956637,-0.001793777215857018
0.11489510001873086,-0.0025354550108604183
0.1275051240713013,-0.003142909455259432
0.1414991297434576,-0.0036305492601854876
0.15702901247293774,-0.004015048370844287
0.17426333860096507,-0.004300031387148015
0.19338917504552322,-0.004499357217495489
0.21461411978584058,-0.004618481592090423
0.23816855519761607,-0.004668818398537417
0.2643081486974108,-0.0046581124172032995
0.29331662783900486,-0.00459343210541579
0.32550885998350565,-0.004485222711528828
0.36123426997094304,-0.004337501885682463
0.40088063288984643,-0.004161678334941098
0.4448782831127585,-0.003960723287661789
0.4937047852839004,-0.0037447957709711623
0.5478901179593945,-0.0035176735574517534
0.6080224261649427,-0.00328671605101868
0.67475440531107,-0.00305706692796347
0.748810385759003,-0.0028330332114157096
0.8309941949353403,-0.002620410656953379
0.9221978823334341,-0.0024211778673106587
1.0234114021054528,-0.002240380658536584
1.135733358343105,-0.0020785565966837134
1.2603829296797273,-0.0019388376665937456
1.3987131026472386,-0.0018208089699401242
1.552225357427048,-0.00172540140057067
1.7225859653987874,-0.0016513418002182627
1.9116440753857036,-0.0015976589466915835
2.121451784910632,-0.0015622046237317748
2.35428641432242,-0.0015425818100689918
2.612675225563332,-0.0015361057594626493
2.8994228538828812,-0.0015393003147600032
3.2176417502507353,-0.0015495050507033411
3.5707859649004625,-0.0015624203329966193
3.9626886387014784,-0.0015757826532653784
4.397603609302721,-0.0015849566840047545
4.880251583654434,-0.0015881424918702857
5.415871378079476,-0.0015812652485775655
6.010276782070388,-0.0015625959631482326
6.669919663030129,-0.0015294809543269698
7.401959996915652,-0.0014799752973053742
8.214343584919439,-0.0014133536505121307
9.115888299750837,-0.001327298808555773
10.11637979766207,-0.0012224068986662028
11.226677735108158,-0.0010975602841051897
12.458833642950081,-0.0009557903743571452
13.826221737646593,-0.0007957449219534553
15.343684089300131,-0.0006127930414339546
17.02769172225898,-0.0004095016042376695
18.896523396912116,-0.0002165623688523434
20.970464013232306,-8.349078019607466e-05
23.27202478960412,-2.231859152333475e-05
25.826187606826746,-4.036657574408805e-06
28.66067616948256,-4.886834685694453e-07
31.80625692794119,-3.942083252677577e-08
35.297073027306574,-2.11501114694889e-09
39.17101490809261,-7.541558879425537e-11
43.47013158125035,-1.78664588465779e-12
48.241087041653735,-2.8118423784440843e-14
53.535666774107185,-2.939658120731286e-16
59.411339849650396,-2.0414898826677326e-18
65.93188271333541,-9.417564981558522e-21
73.16807143427206,-2.8858221504460187e-23
81.19844993184009,-5.874074615046453e-26
90.11018251665037,-7.942332743261794e-29
100.0,-7.133379410459952e-32
