tau,gamma
1e-07,4.702075092003434e-06
1.1097524964120721e-07,2.418740252916001e-05
1.2315506032928263e-07,8.464453281486392e-05
1.3667163564620074e-07,0.00020784850556005796
1.5167168884709241e-07,0.0003802862255367561
1.6831803533309585e-07,0.0005669853008235062
1.867913599020781e-07,0.0007518873015043751
2.0729217795953698e-07,0.0009359806868539052
2.300430119772917e-07,0.0011238406110974542
2.5529080682395163e-07,0.0013149223665455245
2.833096101839324e-07,0.0015069680895123745
3.1440354715915e-07,0.0016994785430914368
3.489101213406774e-07,0.001889971113313064
3.872038781812557e-07,0.0020790725919118437
4.2970047043208437e-07,0.002263668169925729
4.768611697714474e-07,0.00244459721127108
5.291978735958437e-07,0.0026196520104675523
5.872786613189477e-07,0.00278920247611981
6.517339604882421e-07,0.0029529861597339204
7.232633896483533e-07,0.0031104048649517662
8.026433522257174e-07,0.003263646647931904
8.907354638610439e-07,0.0034115058979444744
9.884959046625586e-07,0.0035583602584794097
1.096985797892384e-06,0.0037034918935396565
1.217382727739662e-06,0.0038525545950639567
1.3509935211980278e-06,0.0040065740550495246
1.499268432786047e-06,0.0041713091673713796
1.6638168860761274e-06,0.004350206382365552
1.8464249428955464e-06,0.0045480740253018796
2.049074689815846e-06,0.004770515006600908
2.2739657523579273e-06,0.005020558947098309
2.523539170434766e-06,0.005305023445641374
2.800503894183631e-06,0.005624485207873857
3.107866187782014e-06,0.0059857354655802435
3.4489622604057595e-06,0.0063864943434690825
3.827494478516315e-06,0.006832051641464549
4.247571552536894e-06,0.007317627973732637
4.713753134116729e-06,0.00784516206237995
5.2310993080562585e-06,0.008408925837027735
5.805225516094895e-06,0.009005407726200421
6.44236350872137e-06,0.009630209701266282
7.149428986597577e-06,0.01027300973421866
7.934096665797492e-06,0.01093249986636743
8.804883581643465e-06,0.011592454649742148
9.771241535346501e-06,0.012254507075985419
1.0843659686896109e-05,0.012900584402376207
1.2033778407775906e-05,0.013532924265856701
1.3354515629298974e-05,0.014137959969434722
1.48202070579886e-05,0.014715445370739618
1.6446761779946626e-05,0.015262284541905268
1.8251834943190462e-05,0.01577419564972365
2.0255019392306664e-05,0.016260877669927645
2.2478058335487252e-05,0.016715482918522716
2.4945081352303165e-05,0.017157840907369434
2.7682866303920665e-05,0.01758250775682322
3.072112998861759e-05,0.018013460294957487
3.409285069746814e-05,0.01845112254675211
3.783462617131933e-05,0.01891748043245027
4.1987070844439056e-05,0.01942189908775502
4.659525668664687e-05,0.019980512123608435
5.170920242896755e-05,0.020612557147268958
5.7384416483024044e-05,0.02132740397360299
6.368249944718586e-05,0.022153045500650996
7.067181273927492e-05,0.023093473137139754
7.842822061337681e-05,0.024182579429971224
8.703591361485166e-05,0.02542152294714659
9.658832241158708e-05,0.02684546044888002
0.00010718913192051276,0.02845531404981809
0.00011895340673703195,0.030280517327392995
0.0001320088400831418,0.032323532082868874
0.00014649713983072864,0.03459854921789466
0.0001625755666443795,0.03711052562616743
0.00018041864093920718,0.039848224754822734
0.00020022003718155845,0.042820025246249616
0.0002221946860939524,0.04598333808062222
0.0002465811075822604,0.04934929930151502
0.0002736439997074672,0.05284968930472953
0.00030367711180354605,0.05649405553718676
0.00033700643292719284,0.060210505910867435
0.0003739937302478798,0.06399701332135532
0.0004150404757850477,0.06780893633999273
0.00046059220411451084,0.07162574065035275
0.0005111433483440171,0.07545910508795758
0.0005672426068491978,0.07927489671717988
0.0006294988990221888,0.0831484126245282
0.0006985879746785249,0.08705075966103717
0.0007752597488629464,0.09110663462241582
0.000860346441668451,0.09532157580783732
0.0009547716114208065,0.09984668785334125
0.001059560179277617,0.10475250412013881
0.0011758495540521582,0.1102018624932246
0.0013049019780144017,0.11635882634196625
0.001448118227674533,0.12340798170865142
0.0016070528182616384,0.13164251547683986
0.0017834308769319094,0.14131404225956912
0.0019791668678535573,0.15290305078726324
0.002196385372416547,0.16684452224043259
0.002437444150122222,0.18391851852448377
0.002704959730463137,0.20469767375955802
0.0030018358135755923,0.22967508091605016
0.003331294787934677,0.25878362459654153
0.0036969127071950323,0.29205233285356613
0.00410265810582719,0.32896072808132215
0.004552935074866948,0.3685760851597696
0.00505263106533568,0.4095996756146608
0.005607169938205458,0.4517856875796973
0.006222570836730231,0.49691115221845633
0.006905513520162331,0.5399119062247921
0.007663410868007463,0.5614544393457389
0.008504489341802686,0.5381243244801164
0.009437878277775391,0.47266121095731456
0.010473708979594508,0.3880829695808505
0.011623224686798541,0.29807098512065033
0.01289890261253308,0.20537686247384393
0.014314589375234785,0.11599468332865107
0.015885651294280528,0.04893923451930719
0.01762914118095948,0.01725282684292539
0.01956398343517065,0.010390573943947113
0.021711179456945052,0.01035390180482082
0.02409403560239527,0.009404154674018067
0.026738416158399492,0.007901805212261564
0.029673024081888724,0.006904151504683257
0.032929712550971546,0.006261687615794417
0.036543830709572546,0.0056346189107479554
0.040554607358408275,0.004996159638229871
0.04500557675700498,0.004406942482662454
0.0499450511585514,0.0038803542774517104
0.05542664520663107,0.0033938703523605108
0.06150985788580504,0.002938451923899523
0.06826071834272393,0.0025129778685745764
0.0757525025877192,0.0021155483375176233
0.08406652885618333,0.0017451116811558925
0.09329304026284696,0.0013977474951338703
0.10353218432956637,0.001074576867131755
0.11489510001873086,0.0007734621942118134
0.1275051240713013,0.0004955080509719296
0.1414991297434576,0.00024000063740418917
0.15702901247293774,6.987918205828573e-06
0.17426333860096507,-0.00020294220111062323
0.19338917504552322,-0.00039091845646380125
0.21461411978584058,-0.0005561061777390584
0.23816855519761607,-0.000700174475589677
0.2643081486974108,-0.0008229697274132129
0.29331662783900486,-0.0009257657261969047
0.32550885998350565,-0.0010093706378627254
0.36123426997094304,-0.0010741479245073577
0.40088063288984643,-0.0011216941980208516
0.4448782831127585,-0.0011515411039836234
0.4937047852839004,-0.0011653407473964205
0.5478901179593945,-0.0011622402804179453
0.6080224261649427,-0.0011433981019079505
0.67475440531107,-0.0011084532675477259
0.748810385759003,-0.0010579397531022044
0.8309941949353403,-0.0009927441482593285
0.9221978823334341,-0.0009130499938416923
1.0234114021054528,-0.0008210524109871332
1.135733358343105,-0.0007173301111542851
1.2603829296797273,-0.000605026849542619
1.3987131026472386,-0.0004859673987310318
1.552225357427048,-0.0003634130499883035
1.7225859653987874,-0.00024055381279728468
1.9116440753857036,-0.00012014193063514471
2.121451784910632,-5.984191000301746e-06
2.35428641432242,9.973638751976845e-05
2.612675225563332,0.00019380225070749757
2.8994228538828812,0.0002744883883927794
3.2176417502507353,0.00034029633492236596
3.5707859649004625,0.0003901397828198283
3.9626886387014784,0.0004245260090891837
4.397603609302721,0.0004434262719503092
4.880251583654434,0.0004486633722579331
5.415871378079476,0.0004414727132160427
6.010276782070388,0.0004240825186051754
6.669919663030129,0.00039873819700381933
7.401959996915652,0.0003674039339885508
8.214343584919439,0.0003324807024123682
9.115888299750837,0.00029526204228950634
10.11637979766207,0.00025735030072700964
11.226677735108158,0.000219441811995265
12.458833642950081,0.00018241425846294426
13.826221737646593,0.00014610183601257198
15.343684089300131,0.00010922548480420049
17.02769172225898,7.154970509985937e-05
18.896523396912116,3.741952878314175e-05
20.970464013232306,1.4349678772990613e-05
23.27202478960412,3.827027289201429e-06
25.826187606826746,6.91504557561721e-07
28.66067616948256,8.368119160033392e-08
31.80625692794119,6.749251785407119e-09
35.297073027306574,3.620878524148894e-10
39.17101490809261,1.2910731743125458e-11
43.47013158125035,3.058605979127339e-13
48.241087041653735,4.813645757404594e-15
53.535666774107185,5.0324470378682946e-17
59.411339849650396,3.494856186205587e-19
65.93188271333541,1.6122061633207442e-21
73.16807143427206,4.940278852841561e-24
81.19844993184009,1.0055909100574982e-26
90.11018251665037,1.3596588367483817e-29
100.0,1.2211729965905347e-32
