tau,gamma
1e-07,6.632193526004278e-06
1.1097524964120721e-07,3.402222785078016e-05
1.2315506032928263e-07,0.00011828658746075522
1.3667163564620074e-07,0.0002862121108167862
1.5167168884709241e-07,0.0005082884269317635
1.6831803533309585e-07,0.0007205997199336965
1.867913599020781e-07,0.0008913496556214393
2.0729217795953698e-07,0.0010189226841980455
2.300430119772917e-07,0.0011078287396335507
2.5529080682395163e-07,0.0011584807223969569
2.833096101839324e-07,0.001168433987472728
3.1440354715915e-07,0.001140923597165424
3.489101213406774e-07,0.0010777120156206471
3.872038781812557e-07,0.0009840206536853985
4.2970047043208437e-07,0.0008638297606107868
4.768611697714474e-07,0.0007221895374008526
5.291978735958437e-07,0.0005654575714426906
5.872786613189477e-07,0.00039842197480401435
6.517339604882421e-07,0.00022833706079404816
7.232633896483533e-07,6.010112116525499e-05
8.026433522257174e-07,-9.980148076697818e-05
8.907354638610439e-07,-0.0002459133262403158
9.884959046625586e-07,-0.0003734137471659713
1.096985797892384e-06,-0.0004766165850587782
1.217382727739662e-06,-0.0005523887770433507
1.3509935211980278e-06,-0.000596071444663411
1.499268432786047e-06,-0.0006054549656129628
1.6638168860761274e-06,-0.0005780313637097247
1.8464249428955464e-06,-0.0005119278332608527
2.049074689815846e-06,-0.000407197955543003
2.2739657523579273e-06,-0.00026257107050266096
2.523539170434766e-06,-7.993073339040993e-05
2.800503894183631e-06,0.00014048536068971302
3.107866187782014e-06,0.00039640533095240633
3.4489622604057595e-06,0.0006853356723992811
3.827494478516315e-06,0.001005635778959319
4.247571552536894e-06,0.00135274047500319
4.713753134116729e-06,0.0017256711415001113
5.2310993080562585e-06,0.002119337762523536
5.805225516094895e-06,0.0025325217629619166
6.44236350872137e-06,0.0029617385584508656
7.149428986597577e-06,0.0034044852584764456
7.934096665797492e-06,0.003860477622569821
8.804883581643465e-06,0.004325765642755609
9.771241535346501e-06,0.004803520051029851
1.0843659686896109e-05,0.005289563619063221
1.2033778407775906e-05,0.0057893122424238835
1.3354515629298974e-05,0.006300580380190191
1.48202070579886e-05,0.006829057561931801
1.6446761779946626e-05,0.007376832986815275
1.8251834943190462e-05,0.007948136670385289
2.0255019392306664e-05,0.008550652302166697
2.2478058335487252e-05,0.009186612255628711
2.4945081352303165e-05,0.009869433234824311
2.7682866303920665e-05,0.010600460526844793
3.072112998861759e-05,0.011397613876158853
3.409285069746814e-05,0.012263861869314434
3.783462617131933e-05,0.013219675050180568
4.1987070844439056e-05,0.014273400992652802
4.659525668664687e-05,0.015446354563989694
5.170920242896755e-05,0.01675689767942862
5.7384416483024044e-05,0.018226553712502216
6.368249944718586e-05,0.01988834449485747
7.067181273927492e-05,0.021766223791702413
7.842822061337681e-05,0.023913563153699607
8.703591361485166e-05,0.02636352316442558
9.658832241158708e-05,0.029195139796353672
0.00010718913192051276,0.03246637141069625
0.00011895340673703195,0.036300389074089175
0.0001320088400831418,0.040815106368941645
0.00014649713983072864,0.04619859717247901
0.0001625755666443795,0.05270849264173305
0.00018041864093920718,0.060827646080130346
0.00020022003718155845,0.07132417848235581
0.0002221946860939524,0.08493183407793599
0.0002465811075822604,0.10208186202136509
0.0002736439997074672,0.12285640649815854
0.00030367711180354605,0.14713850720233207
0.00033700643292719284,0.17434361079476401
0.0003739937302478798,0.2041599462767945
0.0004150404757850477,0.23589710528386637
0.00046059220411451084,0.2690591035308928
0.0005111433483440171,0.30284262121673816
0.0005672426068491978,0.33626309479439237
0.0006294988990221888,0.3684241566741118
0.0006985879746785249,0.39780374392878337
0.0007752597488629464,0.4233969503107962
0.000860346441668451,0.4425350592570092
0.0009547716114208065,0.4518325142739053
0.001059560179277617,0.44724556360049933
0.0011758495540521582,0.42962024757737327
0.0013049019780144017,0.40447361470321996
0.001448118227674533,0.3756902444248983
0.0016070528182616384,0.3453397648598008
0.0017834308769319094,0.3137998470904654
0.0019791668678535573,0.28224084496162555
0.002196385372416547,0.2514139193735879
0.002437444150122222,0.22213755939106575
0.002704959730463137,0.19497432547088722
0.0030018358135755923,0.1702022782520844
0.003331294787934677,0.14815788388219497
0.0036969127071950323,0.12880389407260637
0.00410265810582719,0.11222622895867819
0.004552935074866948,0.09815942508194044
0.00505263106533568,0.0863474071819672
0.005607169938205458,0.07637837530897759
0.006222570836730231,0.0679551364720298
0.006905513520162331,0.06077046520905636
0.007663410868007463,0.05460514523911966
0.008504489341802686,0.049281378834754405
0.009437878277775391,0.04464233514950618
0.010473708979594508,0.040592682218976085
0.011623224686798541,0.03701458739285228
0.01289890261253308,0.03385963021610991
0.014314589375234785,0.031039476430657516
0.015885651294280528,0.028527360193673926
0.01762914118095948,0.026260424673961464
0.01956398343517065,0.024219080655748064
0.021711179456945052,0.0223640926343371
0.02409403560239527,0.0206754601887039
0.026738416158399492,0.019133512024508997
0.029673024081888724,0.01771580339691648
0.032929712550971546,0.016416571887404308
0.036543830709572546,0.015212813885938623
0.040554607358408275,0.014106341568552798
0.04500557675700498,0.013077018596397918
0.0499450511585514,0.012128346843088474
0.05542664520663107,0.011245945966214773
0.06150985788580504,0.0104310353661219
0.06826071834272393,0.009676133765472333
0.0757525025877192,0.00897854120055479
0.08406652885618333,0.008336668093531556
0.09329304026284696,0.007744545717532449
0.10353218432956637,0.007204315921399621
0.11489510001873086,0.00670854540129371
0.1275051240713013,0.006260387167273573
0.1414991297434576,0.0058527841895289505
0.15702901247293774,0.005487940873664197
0.17426333860096507,0.005160495818566208
0.19338917504552322,0.00487071309435215
0.21461411978584058,0.004615344482819529
0.23816855519761607,0.004392609306970626
0.2643081486974108,0.004201144974092597
0.29331662783900486,0.00403762925859005
0.32550885998350565,0.0039021003205655306
0.36123426997094304,0.003790391489243723
0.40088063288984643,0.0037032801226478604
0.4448782831127585,0.0036364350209557414
0.4937047852839004,0.0035907813873117737
0.5478901179593945,0.0035624685184422553
0.6080224261649427,0.0035519338508565126
0.67475440531107,0.0035562981420421465
0.748810385759003,0.003575005929773963
0.8309941949353403,0.003606586643563129
0.9221978823334341,0.003649156141489613
1.0234114021054528,0.0037027472920739993
1.135733358343105,0.003764134088485537
1.2603829296797273,0.0038345861083604635
1.3987131026472386,0.003909959044400143
1.552225357427048,0.003991936762063607
1.7225859653987874,0.004076196129668387
1.9116440753857036,0.004163694886106606
2.121451784910632,0.004250837551862104
2.35428641432242,0.00433664503567067
2.612675225563332,0.004418863355501019
2.8994228538828812,0.004493786751258283
3.2176417502507353,0.004560634162085748
3.5707859649004625,0.004613006798028797
3.9626886387014784,0.004650936205816935
4.397603609302721,0.004666360290500135
4.880251583654434,0.004658875920244884
5.415871378079476,0.004620642150275223
6.010276782070388,0.004549353280420377
6.669919663030129,0.004439446353860554
7.401959996915652,0.0042862485771757155
8.214343584919439,0.004087939798436203
9.115888299750837,0.0038374355791772593
10.11637979766207,0.003535347050890724
11.226677735108158,0.0031772105027987694
12.458833642950081,0.002770422328193973
13.826221737646593,0.0023097922136661284
15.343684089300131,0.0017810767947092
17.02769172225898,0.0011913803452818486
18.896523396912116,0.0006304152582648792
20.970464013232306,0.0002431102337183777
23.27202478960412,6.499570464999966e-05
25.826187606826746,1.175606700095461e-05
28.66067616948256,1.423236040574725e-06
31.80625692794119,1.1480975732021069e-07
35.297073027306574,6.159808030586118e-09
39.17101490809261,2.1964243757743365e-10
43.47013158125035,5.20347964220779e-12
48.241087041653735,8.189293735689972e-14
53.535666774107185,8.561548921535214e-16
59.411339849650396,5.945696896199473e-18
65.93188271333541,2.7428001585080596e-20
73.16807143427206,8.404755917488088e-23
81.19844993184009,1.710783303009354e-25
90.11018251665037,2.3131490742562248e-28
100.0,2.0775470532131255e-31
