tau,gamma
1e-07,-5.280854814975504e-06
1.1097524964120721e-07,-2.7115672711379752e-05
1.2315506032928263e-07,-9.448669738816328e-05
1.3667163564620074e-07,-0.00022979319189710191
1.5167168884709241e-07,-0.0004123628949225197
1.6831803533309585e-07,-0.0005951204155358362
1.867913599020781e-07,-0.0007547278541232471
2.0729217795953698e-07,-0.0008898423300736642
2.300430119772917e-07,-0.0010037801041711456
2.5529080682395163e-07,-0.0010959718851464714
2.833096101839324e-07,-0.0011637109787571924
3.1440354715915e-07,-0.0012081200331858885
3.489101213406774e-07,-0.001228768747409012
3.872038781812557e-07,-0.0012283939682296372
4.2970047043208437e-07,-0.0012078348141083535
4.768611697714474e-07,-0.0011699702984078475
5.291978735958437e-07,-0.0011176102672274637
5.872786613189477e-07,-0.001053346287194693
6.517339604882421e-07,-0.0009811590288811936
7.232633896483533e-07,-0.0009032508989589437
8.026433522257174e-07,-0.0008236890071662182
8.907354638610439e-07,-0.0007445553364666468
9.884959046625586e-07,-0.000669046909649609
1.096985797892384e-06,-0.0005990471527793607
1.217382727739662e-06,-0.0005361895356506483
1.3509935211980278e-06,-0.00048150143784711713
1.499268432786047e-06,-0.0004349691328419103
1.6638168860761274e-06,-0.00039623790238167965
1.8464249428955464e-06,-0.0003637904572548119
2.049074689815846e-06,-0.00033571125179300044
2.2739657523579273e-06,-0.00030911233434769076
2.523539170434766e-06,-0.00028094633174711303
2.800503894183631e-06,-0.00024739794961841293
3.107866187782014e-06,-0.0002052500182780824
3.4489622604057595e-06,-0.00015085367116991825
3.827494478516315e-06,-8.155393519059553e-05
4.247571552536894e-06,4.7713598697805135e-06
4.713753134116729e-06,0.00010957463109539958
5.2310993080562585e-06,0.00023229832629192374
5.805225516094895e-06,0.00037252544631751156
6.44236350872137e-06,0.0005271794683368417
7.149428986597577e-06,0.0006934296944226924
7.934096665797492e-06,0.000867074198261588
8.804883581643465e-06,0.0010428647175608568
9.771241535346501e-06,0.0012167412312176285
1.0843659686896109e-05,0.0013821057855448935
1.2033778407775906e-05,0.0015359098853929192
1.3354515629298974e-05,0.0016727037933118767
1.48202070579886e-05,0.0017904406234467997
1.6446761779946626e-05,0.0018869234473453845
1.8251834943190462e-05,0.0019610474354175345
2.0255019392306664e-05,0.0020148454673581864
2.2478058335487252e-05,0.0020488027547653233
2.4945081352303165e-05,0.002068584699440497
2.7682866303920665e-05,0.002077280222947331
3.072112998861759e-05,0.00208270265010996
3.409285069746814e-05,0.0020910857842714892
3.783462617131933e-05,0.0021112144290679692
4.1987070844439056e-05,0.0021519850831697956
4.659525668664687e-05,0.002222494436244742
5.170920242896755e-05,0.0023327096031625434
5.7384416483024044e-05,0.002491679254870721
6.368249944718586e-05,0.0027092501465980044
7.067181273927492e-05,0.002993589680633037
7.842822061337681e-05,0.003353700992559471
8.703591361485166e-05,0.003795087604039458
9.658832241158708e-05,0.004325782048623381
0.00010718913192051276,0.004947139561182005
0.00011895340673703195,0.005665845973556585
0.0001320088400831418,0.006479531664361067
0.00014649713983072864,0.0073920062060863255
0.0001625755666443795,0.008400088510742509
0.00018041864093920718,0.009502232168636571
0.00020022003718155845,0.010698325009913556
0.0002221946860939524,0.011979918312269943
0.0002465811075822604,0.013352755211777256
0.0002736439997074672,0.014803398741901634
0.00030367711180354605,0.016343206745201913
0.00033700643292719284,0.017960028289316993
0.0003739937302478798,0.019667612856822992
0.0004150404757850477,0.021464121868467075
0.00046059220411451084,0.02336173043572635
0.0005111433483440171,0.025377064112735662
0.0005672426068491978,0.02751923808427927
0.0006294988990221888,0.02982751970351324
0.0006985879746785249,0.03231149798100363
0.0007752597488629464,0.03503296769670865
0.000860346441668451,0.038011471587456463
0.0009547716114208065,0.04132865842857883
0.001059560179277617,0.045028605628531476
0.0011758495540521582,0.0492106820167799
0.0013049019780144017,0.05396179473525862
0.001448118227674533,0.05940129578677228
0.0016070528182616384,0.06568107071207574
0.0017834308769319094,0.07295327963767569
0.0019791668678535573,0.08146316726426002
0.002196385372416547,0.09141206924608687
0.002437444150122222,0.10313612001826752
0.002704959730463137,0.11685586832428145
0.0030018358135755923,0.13290653988920018
0.003331294787934677,0.15140237442848253
0.0036969127071950323,0.17253125437061048
0.00410265810582719,0.196200456975328
0.004552935074866948,0.22229603614632315
0.00505263106533568,0.2505492956477612
0.005607169938205458,0.28045458429587206
0.006222570836730231,0.3116743587628392
0.006905513520162331,0.34322276395543144
0.007663410868007463,0.37444455158963297
0.008504489341802686,0.4040570940758466
0.009437878277775391,0.4318488039308869
0.010473708979594508,0.4563669453931974
0.011623224686798541,0.4725463355883099
0.01289890261253308,0.47198322780605695
0.014314589375234785,0.4511449320669108
0.015885651294280528,0.4175849751927733
0.01762914118095948,0.37904145762299707
0.01956398343517065,0.3391274576492937
0.021711179456945052,0.2982559749546779
0.02409403560239527,0.25708407446585274
0.026738416158399492,0.21667009908128568
0.029673024081888724,0.17719507319994432
0.032929712550971546,0.13930382072873804
0.036543830709572546,0.10534370999214455
0.040554607358408275,0.0803797663524798
0.04500557675700498,0.06640023053230751
0.0499450511585514,0.05937526544751344
0.05542664520663107,0.05436194286267833
0.06150985788580504,0.04963137078272915
0.06826071834272393,0.045336543160756665
0.0757525025877192,0.04164219032204854
0.08406652885618333,0.0384057321261507
0.09329304026284696,0.0354615123465419
0.10353218432956637,0.03277037080850538
0.11489510001873086,0.030272339458093548
0.1275051240713013,0.027942990827144763
0.1414991297434576,0.025707667326432607
0.15702901247293774,0.0235437014919287
0.17426333860096507,0.021396151088682897
0.19338917504552322,0.01923896416628946
0.21461411978584058,0.01703228613272273
0.23816855519761607,0.01473825044337798
0.2643081486974108,0.012329681348315717
0.29331662783900486,0.009754634279748403
0.32550885998350565,0.006985697339237873
0.36123426997094304,0.003953929590093519
0.40088063288984643,0.0006074095650699533
0.4448782831127585,-0.003153394848631784
0.4937047852839004,-0.007442399732922607
0.5478901179593945,-0.012389169662389328
0.6080224261649427,-0.018118516061464352
0.67475440531107,-0.024686384108061184
0.748810385759003,-0.03211978942169252
0.8309941949353403,-0.040292198037203304
0.9221978823334341,-0.04912263675823465
1.0234114021054528,-0.05842233373580056
1.135733358343105,-0.06798175952823267
1.2603829296797273,-0.0775501550259996
1.3987131026472386,-0.08686435826014247
1.552225357427048,-0.09588099298827639
1.7225859653987874,-0.10390223016423349
1.9116440753857036,-0.10922044674714367
2.121451784910632,-0.10963556148258505
2.35428641432242,-0.10533203735578034
2.612675225563332,-0.09859734018533708
2.8994228538828812,-0.09104668300860448
3.2176417502507353,-0.08325760808813655
3.5707859649004625,-0.0752275195916856
3.9626886387014784,-0.067220738650674
4.397603609302721,-0.05943250359665843
4.880251583654434,-0.05206606476683798
5.415871378079476,-0.04524338255478884
6.010276782070388,-0.03902423653664036
6.669919663030129,-0.0334776747561475
7.401959996915652,-0.028569319477655564
8.214343584919439,-0.024277926350567337
9.115888299750837,-0.0205060554825269
10.11637979766207,-0.017179909645192195
11.226677735108158,-0.014202325505183924
12.458833642950081,-0.011513536431735161
13.826221737646593,-0.009029133055991349
15.343684089300131,-0.00663265620036959
17.02769172225898,-0.004289551634683115
18.896523396912116,-0.002226595400909727
20.970464013232306,-0.0008507235194468548
23.27202478960412,-0.00022651833549298752
25.826187606826746,-4.0901674180631874e-05
28.66067616948256,-4.948258289112622e-06
31.80625692794119,-3.99053056373786e-07
35.297073027306574,-2.14076445026505e-08
39.17101490809261,-7.633041972220362e-10
43.47013158125035,-1.8082856327406017e-11
48.241087041653735,-2.8458780880024473e-13
53.535666774107185,-2.9752320124013534e-15
59.411339849650396,-2.0661921913794218e-17
65.93188271333541,-9.531514116253297e-20
73.16807143427206,-2.920738973401143e-22
81.19844993184009,-5.94514713001155e-25
90.11018251665037,-8.038429585156746e-28
100.0,-7.219688369937968e-31
