tau,gamma
1e-07,1.3519345354525165e-05
1.1097524964120721e-07,6.915730813195896e-05
1.2315506032928263e-07,0.0002388279877623112
1.3667163564620074e-07,0.0005690382688435654
1.5167168884709241e-07,0.0009785888575859303
1.6831803533309585e-07,0.001310542282563003
1.867913599020781e-07,0.0014924228469149815
2.0729217795953698e-07,0.0015347095947899853
2.300430119772917e-07,0.0014639146121301664
2.5529080682395163e-07,0.0013036337790125392
2.833096101839324e-07,0.0010711173074471779
3.1440354715915e-07,0.0007961005060297604
3.489101213406774e-07,0.0005073795084411925
3.872038781812557e-07,0.00023138294034057375
4.2970047043208437e-07,-6.686387493528786e-06
4.768611697714474e-07,-0.00019065468653672562
5.291978735958437e-07,-0.00030559942848853647
5.872786613189477e-07,-0.00034530150592957304
6.517339604882421e-07,-0.00030927090243828084
7.232633896483533e-07,-0.00020034833911894572
8.026433522257174e-07,-2.925126631903483e-05
8.907354638610439e-07,0.00019380555190307084
9.884959046625586e-07,0.00045429840053497797
1.096985797892384e-06,0.0007377015242333653
1.217382727739662e-06,0.001031842327753637
1.3509935211980278e-06,0.0013226750398199947
1.499268432786047e-06,0.0016030370299953648
1.6638168860761274e-06,0.0018644379989149903
1.8464249428955464e-06,0.0021043544832611686
2.049074689815846e-06,0.0023218541903045
2.2739657523579273e-06,0.0025173120403061654
2.523539170434766e-06,0.002695256370613349
2.800503894183631e-06,0.002857035347865459
3.107866187782014e-06,0.003008897458175063
3.4489622604057595e-06,0.0031517303225396015
3.827494478516315e-06,0.0032905670978797446
4.247571552536894e-06,0.003425501672509508
4.713753134116729e-06,0.0035592400360338174
5.2310993080562585e-06,0.0036923790163310285
5.805225516094895e-06,0.0038258160407737933
6.44236350872137e-06,0.003962859491155519
7.149428986597577e-06,0.0041045529499574894
7.934096665797492e-06,0.004258868000340565
8.804883581643465e-06,0.004429831279355703
9.771241535346501e-06,0.004630385349984515
1.0843659686896109e-05,0.004869687572144562
1.2033778407775906e-05,0.005164648478083256
1.3354515629298974e-05,0.005529688178812047
1.48202070579886e-05,0.005984096196820624
1.6446761779946626e-05,0.006545745095265155
1.8251834943190462e-05,0.007234603359181693
2.0255019392306664e-05,0.008070657102112487
2.2478058335487252e-05,0.009071820049728676
2.4945081352303165e-05,0.010259270905634643
2.7682866303920665e-05,0.011644718206421326
3.072112998861759e-05,0.013250256883645018
3.409285069746814e-05,0.015078435052203925
3.783462617131933e-05,0.017150679169537556
4.1987070844439056e-05,0.019461306290345284
4.659525668664687e-05,0.02202469697869026
5.170920242896755e-05,0.02483149280524623
5.7384416483024044e-05,0.02788011177382171
6.368249944718586e-05,0.031167977753489756
7.067181273927492e-05,0.034674156033867
7.842822061337681e-05,0.0384163215102489
8.703591361485166e-05,0.042363342037506496
9.658832241158708e-05,0.0465578380149352
0.00010718913192051276,0.0509814998055748
0.00011895340673703195,0.05570536444611906
0.0001320088400831418,0.06076213751922601
0.00014649713983072864,0.0662456125802945
0.0001625755666443795,0.07226812778383968
0.00018041864093920718,0.07898270666337714
0.00020022003718155845,0.0866625450528417
0.0002221946860939524,0.09553448170861768
0.0002465811075822604,0.10601689963335614
0.0002736439997074672,0.11890676011739214
0.00030367711180354605,0.13616733941757755
0.00033700643292719284,0.15991555310909605
0.0003739937302478798,0.1907300225301061
0.0004150404757850477,0.22724860780479172
0.00046059220411451084,0.26816990114483835
0.0005111433483440171,0.31196586701072115
0.0005672426068491978,0.3571769880936789
0.0006294988990221888,0.4022458613199375
0.0006985879746785249,0.4446714980099406
0.0007752597488629464,0.4819149939149277
0.000860346441668451,0.5094008929000572
0.0009547716114208065,0.5227491096507769
0.001059560179277617,0.5177020444959648
0.0011758495540521582,0.49665832650350467
0.0013049019780144017,0.46818171603172903
0.001448118227674533,0.4381894170303268
0.0016070528182616384,0.4093370948383035
0.0017834308769319094,0.38208402475033637
0.0019791668678535573,0.3578056366235445
0.002196385372416547,0.3374954042243625
0.002437444150122222,0.3221037821647875
0.002704959730463137,0.3121009278828194
0.0030018358135755923,0.30772246698220906
0.003331294787934677,0.30894664189835397
0.0036969127071950323,0.31554401571657026
0.00410265810582719,0.3271121461239339
0.004552935074866948,0.3430600838952878
0.00505263106533568,0.362814087159841
0.005607169938205458,0.38531790624391904
0.006222570836730231,0.40968508361517175
0.006905513520162331,0.43440610833855153
0.007663410868007463,0.4587722261690237
0.008504489341802686,0.4805054188180371
0.009437878277775391,0.49554922354760106
0.010473708979594508,0.4980325362555818
0.011623224686798541,0.4859617079987114
0.01289890261253308,0.4626507417109994
0.014314589375234785,0.43132382456498736
0.015885651294280528,0.39548250474232555
0.01762914118095948,0.35699078347287655
0.01956398343517065,0.317864182168795
0.021711179456945052,0.2794391057374013
0.02409403560239527,0.24286342220110357
0.026738416158399492,0.20925066429487163
0.029673024081888724,0.17917842806383277
0.032929712550971546,0.15334018401802219
0.036543830709572546,0.13166918773381747
0.040554607358408275,0.1138798524689843
0.04500557675700498,0.0993106080289105
0.0499450511585514,0.0873311782677385
0.05542664520663107,0.07729038806637749
0.06150985788580504,0.06877116264982215
0.06826071834272393,0.0614551018554035
0.0757525025877192,0.05510939391735156
0.08406652885618333,0.0495781677675221
0.09329304026284696,0.04470414063617426
0.10353218432956637,0.04041495197399433
0.11489510001873086,0.036598323690393994
0.1275051240713013,0.033217807178335265
0.1414991297434576,0.03019279854556137
0.15702901247293774,0.027498511428964277
0.17426333860096507,0.02508146050477249
0.19338917504552322,0.022916836646026523
0.21461411978584058,0.0209728800833783
0.23816855519761607,0.019221937857148826
0.2643081486974108,0.017648472627359114
0.29331662783900486,0.01622378805120555
0.32550885998350565,0.014942049653151152
0.36123426997094304,0.0137765809284914
0.40088063288984643,0.012725002839804605
0.4448782831127585,0.011765348062805811
0.4937047852839004,0.010894425584126241
0.5478901179593945,0.010096622438418301
0.6080224261649427,0.009365980933278506
0.67475440531107,0.00869332150947651
0.748810385759003,0.008069304344074789
0.8309941949353403,0.007489393117303738
0.9221978823334341,0.00694222663379809
1.0234114021054528,0.006426778663563962
1.135733358343105,0.0059321481276708235
1.2603829296797273,0.005458939631350485
1.3987131026472386,0.004999137021332712
1.552225357427048,0.00455380486250722
1.7225859653987874,0.004119954640766807
1.9116440753857036,0.0036983411543975876
2.121451784910632,0.0032912901374095535
2.35428641432242,0.002899546261405385
2.612675225563332,0.0025293667114998086
2.8994228538828812,0.002182278877480162
3.2176417502507353,0.001865310436687071
3.5707859649004625,0.001581067606904222
3.9626886387014784,0.0013345359208216685
4.397603609302721,0.0011284368646441892
4.880251583654434,0.0009639956460941002
5.415871378079476,0.0008415267669697205
6.010276782070388,0.0007579645986704973
6.669919663030129,0.0007088564210929181
7.401959996915652,0.0006874419239243962
8.214343584919439,0.00068487367873365
9.115888299750837,0.0006910895618450732
10.11637979766207,0.0006949061846285131
11.226677735108158,0.0006855508287371397
12.458833642950081,0.000655734827316531
13.826221737646593,0.0005951651266939478
15.343684089300131,0.0004928192285605886
17.02769172225898,0.00034653839395746276
18.896523396912116,0.00018858690755608955
20.970464013232306,7.370359801803975e-05
23.27202478960412,1.9819544419509048e-05
25.826187606826746,3.5935527118937827e-06
28.66067616948256,4.3548223661131436e-07
31.80625692794119,3.5143731071382064e-08
35.297073027306574,1.88585130594005e-09
39.17101490809261,6.72489280227071e-11
43.47013158125035,1.5932159593816263e-12
48.241087041653735,2.507448165554817e-14
53.535666774107185,2.621439089102437e-16
59.411339849650396,1.82050119547968e-18
65.93188271333541,8.398131721466932e-21
73.16807143427206,2.5734382317128797e-23
81.19844993184009,5.238219553103607e-26
90.11018251665037,7.082593843678835e-29
100.0,6.361207938455517e-32
