tau,gamma
1e-07,1.9828971184050458e-05
1.1097524964120721e-07,0.00010159529790500622
1.2315506032928263e-07,0.00035219006313763184
1.3667163564620074e-07,0.0008465317923193268
1.5167168884709241e-07,0.0014829665039609776
1.6831803533309585e-07,0.0020534724319704275
1.867913599020781e-07,0.0024584960802400413
2.0729217795953698e-07,0.0027034235627728317
2.300430119772917e-07,0.002816772207742429
2.5529080682395163e-07,0.0028221251425228095
2.833096101839324e-07,0.0027367605946719783
3.1440354715915e-07,0.0025958779155073925
3.489101213406774e-07,0.0024268435956114687
3.872038781812557e-07,0.002247163864493291
4.2970047043208437e-07,0.0020672950167131402
4.768611697714474e-07,0.0019061340522734734
5.291978735958437e-07,0.001789742880351539
5.872786613189477e-07,0.001732643106592711
6.517339604882421e-07,0.0017393108789274887
7.232633896483533e-07,0.0018074571043137872
8.026433522257174e-07,0.0019309294744977194
8.907354638610439e-07,0.002102424802527833
9.884959046625586e-07,0.0023156690625275194
1.096985797892384e-06,0.002560683400593681
1.217382727739662e-06,0.0028276052513741654
1.3509935211980278e-06,0.0031012729390210996
1.499268432786047e-06,0.0033771666408566395
1.6638168860761274e-06,0.003652878205954209
1.8464249428955464e-06,0.003934614049012831
2.049074689815846e-06,0.004231833483036869
2.2739657523579273e-06,0.004546274428128434
2.523539170434766e-06,0.00487251209540592
2.800503894183631e-06,0.0052014428659329075
3.107866187782014e-06,0.005542783227220745
3.4489622604057595e-06,0.0059029633946019126
3.827494478516315e-06,0.006294829382943599
4.247571552536894e-06,0.006721220954967605
4.713753134116729e-06,0.007191319951269487
5.2310993080562585e-06,0.007707874116937905
5.805225516094895e-06,0.008270863258923051
6.44236350872137e-06,0.008873681239709622
7.149428986597577e-06,0.009503935570170789
7.934096665797492e-06,0.010158271790002688
8.804883581643465e-06,0.010820571293520457
9.771241535346501e-06,0.01149176352157752
1.0843659686896109e-05,0.012157618868448128
1.2033778407775906e-05,0.012830251133678201
1.3354515629298974e-05,0.013508198329096334
1.48202070579886e-05,0.014189030640591543
1.6446761779946626e-05,0.014851372675201476
1.8251834943190462e-05,0.015473563680447684
2.0255019392306664e-05,0.016050891479614405
2.2478058335487252e-05,0.016573544941120212
2.4945081352303165e-05,0.017074150598062054
2.7682866303920665e-05,0.01756513172086764
3.072112998861759e-05,0.018084579966610986
3.409285069746814e-05,0.01864388854303121
3.783462617131933e-05,0.019271655463521525
4.1987070844439056e-05,0.01997952569521439
4.659525668664687e-05,0.02078354256489955
5.170920242896755e-05,0.02169580779401986
5.7384416483024044e-05,0.02271744972547945
6.368249944718586e-05,0.023862891013649044
7.067181273927492e-05,0.025124735193946493
7.842822061337681e-05,0.0265347703674986
8.703591361485166e-05,0.028096767283435155
9.658832241158708e-05,0.029862625017179654
0.00010718913192051276,0.03183575385892043
0.00011895340673703195,0.03400989478648278
0.0001320088400831418,0.03631836973104895
0.00014649713983072864,0.038752147143070216
0.0001625755666443795,0.041344011376563315
0.00018041864093920718,0.044092389087701946
0.00020022003718155845,0.046980397053509954
0.0002221946860939524,0.04992532977346427
0.0002465811075822604,0.05293392937737162
0.0002736439997074672,0.055942004280509626
0.00030367711180354605,0.05898063193800565
0.00033700643292719284,0.06201241670578588
0.0003739937302478798,0.06508301031454715
0.0004150404757850477,0.06822090909173842
0.00046059220411451084,0.0714589925916068
0.0005111433483440171,0.07485317980824623
0.0005672426068491978,0.07840090483247499
0.0006294988990221888,0.08219387035186698
0.0006985879746785249,0.0862141669749413
0.0007752597488629464,0.09056735274923779
0.000860346441668451,0.09522063438062917
0.0009547716114208065,0.10025268192796354
0.001059560179277617,0.10563127417007143
0.0011758495540521582,0.11143135769583395
0.0013049019780144017,0.11771633452945957
0.001448118227674533,0.12453739052002347
0.0016070528182616384,0.13200026266895729
0.0017834308769319094,0.14013393619091175
0.0019791668678535573,0.14919231036254907
0.002196385372416547,0.15925101023499133
0.002437444150122222,0.17059589038414433
0.002704959730463137,0.1833906442672684
0.0030018358135755923,0.19834845359305134
0.003331294787934677,0.21635867599770953
0.0036969127071950323,0.23873266894440637
0.00410265810582719,0.26733114668890073
0.004552935074866948,0.30549782475488496
0.00505263106533568,0.3591662071364815
0.005607169938205458,0.43686148168792016
0.006222570836730231,0.5459383505200348
0.006905513520162331,0.6740325921108373
0.007663410868007463,0.7654320933304939
0.008504489341802686,0.7502428980484125
0.009437878277775391,0.6228512446167688
0.010473708979594508,0.4350529961554036
0.011623224686798541,0.24444735571564696
0.01289890261253308,0.10402943518390595
0.014314589375234785,0.033632797494491294
0.015885651294280528,0.01026155688215075
0.01762914118095948,0.00460023040187339
0.01956398343517065,0.002954246670163555
0.021711179456945052,0.0021324589001620086
0.02409403560239527,0.0016704105754592393
0.026738416158399492,0.0013707775396244349
0.029673024081888724,0.001124863154295374
0.032929712550971546,0.0009190793788355887
0.036543830709572546,0.0007579172291304923
0.040554607358408275,0.0006361654011511001
0.04500557675700498,0.0005439467424170262
0.0499450511585514,0.0004739984257645175
0.05542664520663107,0.0004207853508588487
0.06150985788580504,0.0003798006620460944
0.06826071834272393,0.00034714267619878267
0.0757525025877192,0.0003202948944974544
0.08406652885618333,0.0002977529486405953
0.09329304026284696,0.00027850536488459624
0.10353218432956637,0.0002621203458042902
0.11489510001873086,0.0002479564142467986
0.1275051240713013,0.00023574912618024192
0.1414991297434576,0.0002252719250459872
0.15702901247293774,0.00021723546514145484
0.17426333860096507,0.00021195422602855604
0.19338917504552322,0.00020904014039653383
0.21461411978584058,0.00020753867642140563
0.23816855519761607,0.00020722561644586376
0.2643081486974108,0.00020826037054322248
0.29331662783900486,0.00021062325229646655
0.32550885998350565,0.00021406698178095396
0.36123426997094304,0.00021837407576502023
0.40088063288984643,0.00022389997495118367
0.4448782831127585,0.0002307436603698258
0.4937047852839004,0.00023904236807968004
0.5478901179593945,0.00024838325793277976
0.6080224261649427,0.00025853360809084593
0.67475440531107,0.00026903412148526935
0.748810385759003,0.00028029829400312334
0.8309941949353403,0.0002928899916506007
0.9221978823334341,0.0003066095100551506
1.0234114021054528,0.0003202208903571747
1.135733358343105,0.00033222924650614896
1.2603829296797273,0.0003420118096129452
1.3987131026472386,0.0003490602430565228
1.552225357427048,0.0003544501315657921
1.7225859653987874,0.0003590299376293657
1.9116440753857036,0.0003637322107514146
2.121451784910632,0.0003685687113845675
2.35428641432242,0.00037287486306773195
2.612675225563332,0.00037546249121401566
2.8994228538828812,0.0003762109967288173
3.2176417502507353,0.00037700844499962636
3.5707859649004625,0.00037915255916225025
3.9626886387014784,0.0003834469750651283
4.397603609302721,0.0003897630484278105
4.880251583654434,0.0003986202303075112
5.415871378079476,0.0004099712009112187
6.010276782070388,0.0004236539661117869
6.669919663030129,0.0004387201549840696
7.401959996915652,0.0004545575920704628
8.214343584919439,0.0004703225451037666
9.115888299750837,0.0004839614013912286
10.11637979766207,0.0004922907891472929
11.226677735108158,0.0004914010268582843
12.458833642950081,0.0004783597891083715
13.826221737646593,0.0004453138749391631
15.343684089300131,0.00037910924930946487
17.02769172225898,0.00027232409625424167
18.896523396912116,0.00015001538704481352
20.970464013232306,5.896988369498077e-05
23.27202478960412,1.589747877611398e-05
25.826187606826746,2.885453877570981e-06
28.66067616948256,3.498220319713788e-07
31.80625692794119,2.8235824385132725e-08
35.297073027306574,1.5152728053856236e-09
39.17101490809261,5.403575383858253e-11
43.47013158125035,1.2801932827397637e-12
48.241087041653735,2.0148137360757943e-14
53.535666774107185,2.1064130515652841e-16
59.411339849650396,1.4628340783680261e-18
65.93188271333541,6.748184038169317e-21
73.16807143427206,2.0678452740250033e-23
81.19844993184009,4.20908804694829e-26
90.11018251665037,5.691105804771337e-29
100.0,5.11144765970618e-32
