tau,gamma
1e-07,4.82980510970832e-06
1.1097524964120721e-07,2.472088644308616e-05
1.2315506032928263e-07,8.54911156053109e-05
1.3667163564620074e-07,0.00020436760972552815
1.5167168884709241e-07,0.0003540442416969335
1.6831803533309585e-07,0.0004812205196444741
1.867913599020781e-07,0.0005630161432283747
2.0729217795953698e-07,0.0006063849778327715
2.300430119772917e-07,0.0006237132356593915
2.5529080682395163e-07,0.0006251395828443744
2.833096101839324e-07,0.0006179487037880418
3.1440354715915e-07,0.0006115268112876607
3.489101213406774e-07,0.0006132931450767255
3.872038781812557e-07,0.0006275688845680319
4.2970047043208437e-07,0.0006548885663468316
4.768611697714474e-07,0.0006923418591151958
5.291978735958437e-07,0.0007328360300018424
5.872786613189477e-07,0.0007678381105278417
6.517339604882421e-07,0.0007862023770600171
7.232633896483533e-07,0.0007769347136511928
8.026433522257174e-07,0.0007312689303865603
8.907354638610439e-07,0.0006407116882463295
9.884959046625586e-07,0.000503484149663228
1.096985797892384e-06,0.00031913015284393184
1.217382727739662e-06,9.379938878874294e-05
1.3509935211980278e-06,-0.00016180512662017696
1.499268432786047e-06,-0.00043521236530757724
1.6638168860761274e-06,-0.0007072526598358089
1.8464249428955464e-06,-0.0009617312818203547
2.049074689815846e-06,-0.0011791982182569139
2.2739657523579273e-06,-0.0013434190595005356
2.523539170434766e-06,-0.0014430421640501123
2.800503894183631e-06,-0.00146741464135686
3.107866187782014e-06,-0.0014169261806150696
3.4489622604057595e-06,-0.001292360806342588
3.827494478516315e-06,-0.0011036547056221752
4.247571552536894e-06,-0.0008643329537480067
4.713753134116729e-06,-0.0005893883446108022
5.2310993080562585e-06,-0.000299633813196859
5.805225516094895e-06,-1.1270095498345696e-05
6.44236350872137e-06,0.0002567587437579732
7.149428986597577e-06,0.0004903815142649563
7.934096665797492e-06,0.0006794369901614662
8.804883581643465e-06,0.000815707000574127
9.771241535346501e-06,0.000899238184100281
1.0843659686896109e-05,0.0009308133684870191
1.2033778407775906e-05,0.0009182156768734459
1.3354515629298974e-05,0.0008716551187148272
1.48202070579886e-05,0.0008035391570863329
1.6446761779946626e-05,0.0007300431293925785
1.8251834943190462e-05,0.0006653819057586255
2.0255019392306664e-05,0.0006249617378343515
2.2478058335487252e-05,0.0006207539269142918
2.4945081352303165e-05,0.0006603870246888361
2.7682866303920665e-05,0.000747327105216957
3.072112998861759e-05,0.0008775951862970561
3.409285069746814e-05,0.0010404932583310403
3.783462617131933e-05,0.001220464713508186
4.1987070844439056e-05,0.001392857605183982
4.659525668664687e-05,0.0015326387228833628
5.170920242896755e-05,0.0016088908602675369
5.7384416483024044e-05,0.0015910023586151812
6.368249944718586e-05,0.0014524813718558057
7.067181273927492e-05,0.0011649375478470754
7.842822061337681e-05,0.0007139527129118006
8.703591361485166e-05,8.442134973230801e-05
9.658832241158708e-05,-0.0007258791768097965
0.00010718913192051276,-0.0017110897926171272
0.00011895340673703195,-0.002863800799981141
0.0001320088400831418,-0.0041605170900375806
0.00014649713983072864,-0.005593306725261738
0.0001625755666443795,-0.007138366665411811
0.00018041864093920718,-0.008762668697956541
0.00020022003718155845,-0.010419327701550853
0.0002221946860939524,-0.012130974639419005
0.0002465811075822604,-0.014036639803830147
0.0002736439997074672,-0.016012832091177636
0.00030367711180354605,-0.017422319178418483
0.00033700643292719284,-0.018285922044216946
0.0003739937302478798,-0.021295114265950422
0.0004150404757850477,-0.027296140993205903
0.00046059220411451084,-0.021417419978650327
0.0005111433483440171,0.029339395513778517
0.0005672426068491978,0.14862221965059288
0.0006294988990221888,0.3330866178469173
0.0006985879746785249,0.5734029644249111
0.0007752597488629464,0.8600958718980929
0.000860346441668451,1.1625415626802398
0.0009547716114208065,1.4006857197705385
0.001059560179277617,1.4722175535589843
0.0011758495540521582,1.3704189364845496
0.0013049019780144017,1.179266325949368
0.001448118227674533,0.9631094775882328
0.0016070528182616384,0.7419914342612481
0.0017834308769319094,0.51607060174237
0.0019791668678535573,0.29019675526861916
0.002196385372416547,0.06678512730006046
0.002437444150122222,-0.15965408402220566
0.002704959730463137,-0.38129399134414105
0.0030018358135755923,-0.5480018354728936
0.003331294787934677,-0.5852069801784343
0.0036969127071950323,-0.4848145731261447
0.00410265810582719,-0.31056597826359433
0.004552935074866948,-0.11091461038031777
0.00505263106533568,0.10533805978465016
0.005607169938205458,0.34393831594192137
0.006222570836730231,0.602957572637204
0.006905513520162331,0.8823011881825303
0.007663410868007463,1.1941727094237893
0.008504489341802686,1.5211428224740446
0.009437878277775391,1.7525459100164733
0.010473708979594508,1.717395304959242
0.011623224686798541,1.3848966185518616
0.01289890261253308,0.9072578667336981
0.014314589375234785,0.44854916560051955
0.015885651294280528,0.12768361393103045
0.01762914118095948,-0.010335303166054863
0.01956398343517065,-0.0290925182107548
0.021711179456945052,-0.018734111541862327
0.02409403560239527,-0.01587668449889509
0.026738416158399492,-0.017142116198880453
0.029673024081888724,-0.016473620276637378
0.032929712550971546,-0.014424364613625775
0.036543830709572546,-0.012592200100920459
0.040554607358408275,-0.011108616846264142
0.04500557675700498,-0.009600361635611685
0.0499450511585514,-0.008004556448561096
0.05542664520663107,-0.006400486119197193
0.06150985788580504,-0.00483708116137479
0.06826071834272393,-0.003324956990621125
0.0757525025877192,-0.0018746861682157453
0.08406652885618333,-0.000525128831599883
0.09329304026284696,0.0006999253499253819
0.10353218432956637,0.001764381381284309
0.11489510001873086,0.002645551371498048
0.1275051240713013,0.0033226197841102964
0.1414991297434576,0.0037769145089647607
0.15702901247293774,0.00401168021910044
0.17426333860096507,0.004025366576774762
0.19338917504552322,0.0038402795880426617
0.21461411978584058,0.0034777066337849114
0.23816855519761607,0.0029688071206815077
0.2643081486974108,0.0023531834529120633
0.29331662783900486,0.0016635888037818448
0.32550885998350565,0.0009441096788555458
0.36123426997094304,0.0002267076641853066
0.40088063288984643,-0.00045236989798643526
0.4448782831127585,-0.0010634733458529787
0.4937047852839004,-0.0015853917091648412
0.5478901179593945,-0.001995942812788616
0.6080224261649427,-0.002288438077478886
0.67475440531107,-0.002454061227612741
0.748810385759003,-0.0024961853149575108
0.8309941949353403,-0.0024218587400470838
0.9221978823334341,-0.002240542699987151
1.0234114021054528,-0.0019711637233103636
1.135733358343105,-0.0016281566598424896
1.2603829296797273,-0.0012355475876630697
1.3987131026472386,-0.0008131391044224949
1.552225357427048,-0.0003836924781736977
1.7225859653987874,2.960236643982673e-05
1.9116440753857036,0.0004091394585627847
2.121451784910632,0.0007344618192911472
2.35428641432242,0.0009946541718704523
2.612675225563332,0.0011795455426768446
2.8994228538828812,0.0012852518420145651
3.2176417502507353,0.0013145775455362266
3.5707859649004625,0.0012709111753689292
3.9626886387014784,0.0011663024446876473
4.397603609302721,0.0010110065699284075
4.880251583654434,0.0008200169842248103
5.415871378079476,0.0006081112454303963
6.010276782070388,0.00038870542922714817
6.669919663030129,0.00017686634643535542
7.401959996915652,-1.722747834863219e-05
8.214343584919439,-0.0001826484647939001
9.115888299750837,-0.00031243910040762657
10.11637979766207,-0.00040198816708168956
11.226677735108158,-0.0004486055632675284
12.458833642950081,-0.00045491915340710356
13.826221737646593,-0.00042161849414627963
15.343684089300131,-0.0003495746276691694
17.02769172225898,-0.00024470490870649064
18.896523396912116,-0.00013266944067684284
20.970464013232306,-5.174570918602275e-05
23.27202478960412,-1.3902178767156031e-05
25.826187606826746,-2.5196783202766667e-06
28.66067616948256,-3.052967472778313e-07
31.80625692794119,-2.463606354473248e-08
35.297073027306574,-1.3219633421498087e-09
39.17101490809261,-4.714033645982266e-11
43.47013158125035,-1.1168120103939918e-12
48.241087041653735,-1.7576671206722956e-14
53.535666774107185,-1.8375709947493567e-16
59.411339849650396,-1.2761308259888266e-18
65.93188271333541,-5.886902765491015e-21
73.16807143427206,-1.8039226379617925e-23
81.19844993184009,-3.671874668575867e-26
90.11018251665037,-4.9647397284415634e-29
100.0,-4.4590643444010666e-32
