tau,gamma
1e-07,4.461423079574341e-06
1.1097524964120721e-07,2.2872165854955946e-05
1.2315506032928263e-07,7.940250464547586e-05
1.3667163564620074e-07,0.00019148288631590235
1.5167168884709241e-07,0.000337765071417566
1.6831803533309585e-07,0.00047353951936793205
1.867913599020781e-07,0.0005775475835071718
2.0729217795953698e-07,0.0006506712334227342
2.300430119772917e-07,0.0006973681288946638
2.5529080682395163e-07,0.000718520338026761
2.833096101839324e-07,0.0007130511351487018
3.1440354715915e-07,0.0006843465166136666
3.489101213406774e-07,0.0006355366086963701
3.872038781812557e-07,0.0005722276863060232
4.2970047043208437e-07,0.0004994205189324221
4.768611697714474e-07,0.00042134593852725146
5.291978735958437e-07,0.00034210166521737303
5.872786613189477e-07,0.00026416459499368263
6.517339604882421e-07,0.00019057909444774337
7.232633896483533e-07,0.0001230044383589418
8.026433522257174e-07,6.337546141607769e-05
8.907354638610439e-07,1.3080213100977572e-05
9.884959046625586e-07,-2.6868206507590827e-05
1.096985797892384e-06,-5.533502257772636e-05
1.217382727739662e-06,-7.221027581779821e-05
1.3509935211980278e-06,-7.732541533672002e-05
1.499268432786047e-06,-7.150614361876546e-05
1.6638168860761274e-06,-5.599024478826646e-05
1.8464249428955464e-06,-3.1784133585289544e-05
2.049074689815846e-06,-1.4627538085568238e-07
2.2739657523579273e-06,3.8225862151197426e-05
2.523539170434766e-06,8.222090047432215e-05
2.800503894183631e-06,0.00013090590250960167
3.107866187782014e-06,0.00018310133284247946
3.4489622604057595e-06,0.00023732342937073277
3.827494478516315e-06,0.00029280715264539927
4.247571552536894e-06,0.0003483194968190876
4.713753134116729e-06,0.00040378413552180626
5.2310993080562585e-06,0.0004588536345483082
5.805225516094895e-06,0.0005138658057653106
6.44236350872137e-06,0.0005692384121576313
7.149428986597577e-06,0.0006252238601916393
7.934096665797492e-06,0.0006826039888490173
8.804883581643465e-06,0.0007413590160388902
9.771241535346501e-06,0.0008026942822755813
1.0843659686896109e-05,0.0008666280235522629
1.2033778407775906e-05,0.0009344125950023342
1.3354515629298974e-05,0.0010060766457241743
1.48202070579886e-05,0.0010826287283702103
1.6446761779946626e-05,0.0011645003485045106
1.8251834943190462e-05,0.0012524143071949627
2.0255019392306664e-05,0.0013476604441289015
2.2478058335487252e-05,0.001450822138992885
2.4945081352303165e-05,0.0015642889289293068
2.7682866303920665e-05,0.0016886120687235277
3.072112998861759e-05,0.0018266623636214864
3.409285069746814e-05,0.0019787266740732222
3.783462617131933e-05,0.0021476354921675946
4.1987070844439056e-05,0.002333856040519821
4.659525668664687e-05,0.0025399818576332354
5.170920242896755e-05,0.002767681301967231
5.7384416483024044e-05,0.0030189826092315965
6.368249944718586e-05,0.003297181240964112
7.067181273927492e-05,0.0036033327255236493
7.842822061337681e-05,0.0039424630270989205
8.703591361485166e-05,0.00431451078583289
9.658832241158708e-05,0.004725361045858107
0.00010718913192051276,0.00517437294604911
0.00011895340673703195,0.005668574184340282
0.0001320088400831418,0.006209855175732553
0.00014649713983072864,0.00680465336795507
0.0001625755666443795,0.007457176135987367
0.00018041864093920718,0.008170846356033238
0.00020022003718155845,0.008953576789606807
0.0002221946860939524,0.00980536862134719
0.0002465811075822604,0.010738727951615339
0.0002736439997074672,0.011752720774727967
0.00030367711180354605,0.012866865970570353
0.00033700643292719284,0.014085700501588675
0.0003739937302478798,0.01543126795427119
0.0004150404757850477,0.01691298987332295
0.00046059220411451084,0.018549245490427295
0.0005111433483440171,0.02035774913837875
0.0005672426068491978,0.022352771385073425
0.0006294988990221888,0.024569772759849406
0.0006985879746785249,0.0270232728384467
0.0007752597488629464,0.0297675892623007
0.000860346441668451,0.032822825073965736
0.0009547716114208065,0.03626483815924855
0.001059560179277617,0.04013577365711686
0.0011758495540521582,0.044532357718376124
0.0013049019780144017,0.049533036339032825
0.001448118227674533,0.05524893618269166
0.0016070528182616384,0.0618164265899216
0.0017834308769319094,0.06941443022423197
0.0019791668678535573,0.07837770157381856
0.002196385372416547,0.08906282441208749
0.002437444150122222,0.10200655757742785
0.002704959730463137,0.1176830482505828
0.0030018358135755923,0.1366583338142402
0.003331294787934677,0.1592007646398118
0.0036969127071950323,0.18544695849591492
0.00410265810582719,0.21496061229110516
0.004552935074866948,0.24736509084271494
0.00505263106533568,0.2821587422859113
0.005607169938205458,0.31845940895245384
0.006222570836730231,0.35532249192733995
0.006905513520162331,0.3912757992859952
0.007663410868007463,0.42585326837392334
0.008504489341802686,0.4564490166169804
0.009437878277775391,0.477032114314789
0.010473708979594508,0.4789885107346791
0.011623224686798541,0.4611466492865395
0.01289890261253308,0.43177201085238737
0.014314589375234785,0.39761431642338574
0.015885651294280528,0.36186471272513576
0.01762914118095948,0.32500736233952204
0.01956398343517065,0.2882700548480237
0.021711179456945052,0.25276251987701226
0.02409403560239527,0.21938811178370618
0.026738416158399492,0.18892545759577795
0.029673024081888724,0.1616681491006517
0.032929712550971546,0.13805158639612383
0.036543830709572546,0.11797742617677776
0.040554607358408275,0.10132712984397167
0.04500557675700498,0.08765130952880316
0.0499450511585514,0.07646532416865576
0.05542664520663107,0.06721897568949883
0.06150985788580504,0.05951063655486628
0.06826071834272393,0.05301289815836419
0.0757525025877192,0.04747597719148695
0.08406652885618333,0.04272584714659778
0.09329304026284696,0.03859393716968855
0.10353218432956637,0.034986188057061295
0.11489510001873086,0.0317851681650428
0.1275051240713013,0.02894693226189146
0.1414991297434576,0.026390325967892748
0.15702901247293774,0.0240783617653924
0.17426333860096507,0.02194470909684037
0.19338917504552322,0.019950441449984112
0.21461411978584058,0.018048340091559343
0.23816855519761607,0.016197169217520783
0.2643081486974108,0.014366589833874748
0.29331662783900486,0.01251007785006102
0.32550885998350565,0.010603824035344687
0.36123426997094304,0.008598268083780298
0.40088063288984643,0.006468878059576161
0.4448782831127585,0.004155114040545293
0.4937047852839004,0.0015899909116655678
0.5478901179593945,-0.0013214258457601364
0.6080224261649427,-0.004721956013936524
0.67475440531107,-0.00895325339794062
0.748810385759003,-0.014846698152677336
0.8309941949353403,-0.023438728165379098
0.9221978823334341,-0.03499263500560129
1.0234114021054528,-0.04860946031409161
1.135733358343105,-0.06342902560751253
1.2603829296797273,-0.07892202040656343
1.3987131026472386,-0.0949069485186196
1.552225357427048,-0.11150090188435338
1.7225859653987874,-0.1274816041551355
1.9116440753857036,-0.13900063107957736
2.121451784910632,-0.14108630218643628
2.35428641432242,-0.13391030080055122
2.612675225563332,-0.12221080673994092
2.8994228538828812,-0.10936051588929048
3.2176417502507353,-0.09633605844506044
3.5707859649004625,-0.08302993392815551
3.9626886387014784,-0.06980527454706201
4.397603609302721,-0.05701232127435331
4.880251583654434,-0.0449259358262627
5.415871378079476,-0.03390164524215253
6.010276782070388,-0.02459493288574653
6.669919663030129,-0.017860445060953887
7.401959996915652,-0.013584665208048656
8.214343584919439,-0.010815660100615729
9.115888299750837,-0.008742857741116248
10.11637979766207,-0.0070499348712893765
11.226677735108158,-0.005635087789147868
12.458833642950081,-0.004438946494863801
13.826221737646593,-0.0033976937504569408
15.343684089300131,-0.002446568556097792
17.02769172225898,-0.0015594805516578232
18.896523396912116,-0.0008025906544558989
20.970464013232306,-0.0003053606060699613
23.27202478960412,-8.115570497997925e-05
25.826187606826746,-1.464255033264718e-05
28.66067616948256,-1.7708761595052677e-06
31.80625692794119,-1.4279385604242207e-07
35.297073027306574,-7.6599274163931e-09
39.17101490809261,-2.7311405938018684e-10
43.47013158125035,-6.470079951847609e-12
48.241087041653735,-1.0182569258166001e-13
53.535666774107185,-1.0645383166411802e-15
59.411339849650396,-7.392833482247937e-18
65.93188271333541,-3.410373946717586e-20
73.16807143427206,-1.0450397527510227e-22
81.19844993184009,-2.1271722344649464e-25
90.11018251665037,-2.876148156247902e-28
100.0,-2.583202731745106e-31
