tau,gamma
1e-07,1.2334669384221276e-05
1.1097524964120721e-07,6.335309215149213e-05
1.2315506032928263e-07,0.00022090961776898222
1.3667163564620074e-07,0.0005380940632117747
1.5167168884709241e-07,0.0009687508066259099
1.6831803533309585e-07,0.0014063074717297745
1.867913599020781e-07,0.0017996942579033286
2.0729217795953698e-07,0.00214902614159492
2.300430119772917e-07,0.0024643357556026297
2.5529080682395163e-07,0.0027444571208930604
2.833096101839324e-07,0.0029828359697881934
3.1440354715915e-07,0.003180481941843974
3.489101213406774e-07,0.003334486984836257
3.872038781812557e-07,0.0034497239482061317
4.2970047043208437e-07,0.003525583564208141
4.768611697714474e-07,0.003567708951476504
5.291978735958437e-07,0.003579920901728669
5.872786613189477e-07,0.003567344494162189
6.517339604882421e-07,0.003537373914001886
7.232633896483533e-07,0.0034941066575808616
8.026433522257174e-07,0.0034467603009731554
8.907354638610439e-07,0.0033989801600167583
9.884959046625586e-07,0.003359638257615055
1.096985797892384e-06,0.003332164826346672
1.217382727739662e-06,0.0033232001803827032
1.3509935211980278e-06,0.0033353342381925704
1.499268432786047e-06,0.003372016544457087
1.6638168860761274e-06,0.003434346608311512
1.8464249428955464e-06,0.003522519569412837
2.049074689815846e-06,0.0036366194804616347
2.2739657523579273e-06,0.0037743986083758306
2.523539170434766e-06,0.0039367944404877986
2.800503894183631e-06,0.0041205664393933
3.107866187782014e-06,0.00432845761204891
3.4489622604057595e-06,0.004557735309458043
3.827494478516315e-06,0.00481292849875815
4.247571552536894e-06,0.005093514438550642
4.713753134116729e-06,0.005404799023151546
5.2310993080562585e-06,0.005749516013095245
5.805225516094895e-06,0.006132711594868197
6.44236350872137e-06,0.0065611495436053505
7.149428986597577e-06,0.007038697837071054
7.934096665797492e-06,0.007575352556490491
8.804883581643465e-06,0.008172462759629361
9.771241535346501e-06,0.00884097996387272
1.0843659686896109e-05,0.009578665841428989
1.2033778407775906e-05,0.010395272262460207
1.3354515629298974e-05,0.011285825258897816
1.48202070579886e-05,0.012254703937913117
1.6446761779946626e-05,0.013294772863777306
1.8251834943190462e-05,0.014399977483865125
2.0255019392306664e-05,0.015563395584292516
2.2478058335487252e-05,0.016765299822340665
2.4945081352303165e-05,0.01800106703057376
2.7682866303920665e-05,0.019238245346097166
3.072112998861759e-05,0.020473353985903067
3.409285069746814e-05,0.021668361879365525
3.783462617131933e-05,0.02281772165680508
4.1987070844439056e-05,0.023891671783354416
4.659525668664687e-05,0.024879834239737206
5.170920242896755e-05,0.02577500506791794
5.7384416483024044e-05,0.026564079622610853
6.368249944718586e-05,0.02726964805909048
7.067181273927492e-05,0.027884079939311364
7.842822061337681e-05,0.028453869085453568
8.703591361485166e-05,0.02898598876820727
9.658832241158708e-05,0.02953676701671913
0.00010718913192051276,0.03013259991617377
0.00011895340673703195,0.030829088654719453
0.0001320088400831418,0.03167398759319438
0.00014649713983072864,0.03272043611065308
0.0001625755666443795,0.03403863625453552
0.00018041864093920718,0.0356829300077324
0.00020022003718155845,0.03774311902866239
0.0002221946860939524,0.04027271563309376
0.0002465811075822604,0.043363762800764115
0.0002736439997074672,0.047042905595151875
0.00030367711180354605,0.05136058906960502
0.00033700643292719284,0.056268191467498355
0.0003739937302478798,0.061745430455394
0.0004150404757850477,0.06767106831065457
0.00046059220411451084,0.07393896455477117
0.0005111433483440171,0.08040201222653805
0.0005672426068491978,0.0868707530033115
0.0006294988990221888,0.09323600599785621
0.0006985879746785249,0.09926960973428603
0.0007752597488629464,0.1049444223051396
0.000860346441668451,0.11009053095082999
0.0009547716114208065,0.11477931253278036
0.001059560179277617,0.11900895035954853
0.0011758495540521582,0.12291278855035087
0.0013049019780144017,0.12665700951229286
0.001448118227674533,0.13036857428231757
0.0016070528182616384,0.13430847544239025
0.0017834308769319094,0.1386677640205982
0.0019791668678535573,0.14390861197319607
0.002196385372416547,0.15009215458109318
0.002437444150122222,0.15714685490993388
0.002704959730463137,0.16583359754410565
0.0030018358135755923,0.18035506568200005
0.003331294787934677,0.20653142496259863
0.0036969127071950323,0.2460052399908694
0.00410265810582719,0.2950772502356969
0.004552935074866948,0.34991379680944257
0.00505263106533568,0.40805053808659014
0.005607169938205458,0.46962068565167536
0.006222570836730231,0.5371656232699457
0.006905513520162331,0.6039024331236907
0.007663410868007463,0.642959343214181
0.008504489341802686,0.6218419885537425
0.009437878277775391,0.5440228940343025
0.010473708979594508,0.44095001720751303
0.011623224686798541,0.33190643741973286
0.01289890261253308,0.22107185896376774
0.014314589375234785,0.11555492650500407
0.015885651294280528,0.03755239976650608
0.01762914118095948,0.0021214631504431485
0.01956398343517065,-0.0038513791440045564
0.021711179456945052,-0.002205360786880479
0.02409403560239527,-0.002125749531270886
0.026738416158399492,-0.002908402400232232
0.029673024081888724,-0.003128948006371805
0.032929712550971546,-0.0029573453857421705
0.036543830709572546,-0.0028057946531070484
0.040554607358408275,-0.0027110241872719907
0.04500557675700498,-0.002582964945793106
0.0499450511585514,-0.0024074513890330823
0.05542664520663107,-0.002204098740060868
0.06150985788580504,-0.0019861895684321522
0.06826071834272393,-0.0017544732604008997
0.0757525025877192,-0.0015120866936409905
0.08406652885618333,-0.00126662377667552
0.09329304026284696,-0.0010232847182012061
0.10353218432956637,-0.0007896955816623702
0.11489510001873086,-0.0005696437583720216
0.1275051240713013,-0.0003688114340690648
0.1414991297434576,-0.00019046156395866674
0.15702901247293774,-3.677225601753289e-05
0.17426333860096507,9.043863959176863e-05
0.19338917504552322,0.00019176920278753034
0.21461411978584058,0.0002670995381851073
0.23816855519761607,0.00031855389888852054
0.2643081486974108,0.00034803383190267395
0.29331662783900486,0.00035802115744855764
0.32550885998350565,0.00035147291182640504
0.36123426997094304,0.0003304036511743708
0.40088063288984643,0.00029750386029741546
0.4448782831127585,0.0002541486405219474
0.4937047852839004,0.00020224207508830511
0.5478901179593945,0.0001429757684878492
0.6080224261649427,7.76350340894978e-05
0.67475440531107,7.797573735529709e-06
0.748810385759003,-6.541261106106861e-05
0.8309941949353403,-0.00013984481987853477
0.9221978823334341,-0.00021404164981942268
1.0234114021054528,-0.00028563112600188666
1.135733358343105,-0.00035255987107325146
1.2603829296797273,-0.0004128712011736929
1.3987131026472386,-0.00046409591512492336
1.552225357427048,-0.0005049767778138321
1.7225859653987874,-0.000533310637938397
1.9116440753857036,-0.0005487093352124742
2.121451784910632,-0.0005504039404157059
2.35428641432242,-0.0005387722010944146
2.612675225563332,-0.0005148662137852571
2.8994228538828812,-0.0004793251991630473
3.2176417502507353,-0.00043395446154831363
3.5707859649004625,-0.00037962565260928
3.9626886387014784,-0.00031873192501638743
4.397603609302721,-0.00025288313496004105
4.880251583654434,-0.00018402464085587184
5.415871378079476,-0.00011410702372588327
6.010276782070388,-4.48992479972199e-05
6.669919663030129,2.088002180579938e-05
7.401959996915652,8.13467891160026e-05
8.214343584919439,0.00013382298544334592
9.115888299750837,0.00017609024666632924
10.11637979766207,0.00020590936219049206
11.226677735108158,0.00022125817398557882
12.458833642950081,0.00022173662012473042
13.826221737646593,0.00020578084709825235
15.343684089300131,0.00017181057880839243
17.02769172225898,0.0001210869361592508
18.896523396912116,6.592573184526422e-05
20.970464013232306,2.5766750493994448e-05
23.27202478960412,6.928913973116345e-06
25.826187606826746,1.2563013804988406e-06
28.66067616948256,1.5224367421937728e-07
31.80625692794119,1.2286161448522582e-08
35.297073027306574,6.592886549749471e-10
39.17101490809261,2.3510043948383213e-11
43.47013158125035,5.569839623282637e-13
48.241087041653735,8.765970259695533e-15
53.535666774107185,9.164479299141719e-17
59.411339849650396,6.364422314970474e-19
65.93188271333541,2.9359638409423256e-21
73.16807143427206,8.996669544560865e-24
81.19844993184009,1.8312672021672735e-26
90.11018251665037,2.4760553999236215e-29
100.0,2.2238608640880169e-32
