tau,gamma
1e-07,-3.3868819833499217e-06
1.1097524964120721e-07,-1.741273558598472e-05
1.2315506032928263e-07,-6.085960549979124e-05
1.3667163564620074e-07,-0.00014902924143395636
1.5167168884709241e-07,-0.00027122401325654227
1.6831803533309585e-07,-0.00040120039472590674
1.867913599020781e-07,-0.0005276965538760469
2.0729217795953698e-07,-0.0006532250836625614
2.300430119772917e-07,-0.0007829954364523786
2.5529080682395163e-07,-0.0009185734910830965
2.833096101839324e-07,-0.0010603837022903995
3.1440354715915e-07,-0.0012101425435981988
3.489101213406774e-07,-0.0013684514376669577
3.872038781812557e-07,-0.0015376187332835094
4.2970047043208437e-07,-0.0017173137819005535
4.768611697714474e-07,-0.001909750810422345
5.291978735958437e-07,-0.002114400000847226
5.872786613189477e-07,-0.0023328543518201924
6.517339604882421e-07,-0.0025649428032427208
7.232633896483533e-07,-0.002810762752307559
8.026433522257174e-07,-0.0030709196330144855
8.907354638610439e-07,-0.0033433862581150925
9.884959046625586e-07,-0.003629583320132644
1.096985797892384e-06,-0.0039253244940590055
1.217382727739662e-06,-0.004232051070448037
1.3509935211980278e-06,-0.004544084992317248
1.499268432786047e-06,-0.004861376434327172
1.6638168860761274e-06,-0.005178104860910355
1.8464249428955464e-06,-0.005490900154963255
2.049074689815846e-06,-0.005795120795599766
2.2739657523579273e-06,-0.006082797863171768
2.523539170434766e-06,-0.006351024073284566
2.800503894183631e-06,-0.006587454053266847
3.107866187782014e-06,-0.006790001468973539
3.4489622604057595e-06,-0.00694401453680504
3.827494478516315e-06,-0.007045901588159949
4.247571552536894e-06,-0.007081951047739108
4.713753134116729e-06,-0.007044367523048201
5.2310993080562585e-06,-0.006923119034824442
5.805225516094895e-06,-0.006704739930094448
6.44236350872137e-06,-0.006383204571870897
7.149428986597577e-06,-0.005940175062514888
7.934096665797492e-06,-0.005370478126351689
8.804883581643465e-06,-0.004653495709714754
9.771241535346501e-06,-0.0037791794238773335
1.0843659686896109e-05,-0.0027269393564451194
1.2033778407775906e-05,-0.001475665810883372
1.3354515629298974e-05,-4.13761001250169e-06
1.48202070579886e-05,0.001723562795879139
1.6446761779946626e-05,0.003733271055227741
1.8251834943190462e-05,0.006073377024129025
2.0255019392306664e-05,0.008776837554560083
2.2478058335487252e-05,0.011890675240145086
2.4945081352303165e-05,0.015447404833658503
2.7682866303920665e-05,0.019465063724559483
3.072112998861759e-05,0.023961555948117195
3.409285069746814e-05,0.02889856153276136
3.783462617131933e-05,0.034268297426683594
4.1987070844439056e-05,0.0399766811718359
4.659525668664687e-05,0.045975706364007586
5.170920242896755e-05,0.052145237153980555
5.7384416483024044e-05,0.058381005195641246
6.368249944718586e-05,0.0645784377570204
7.067181273927492e-05,0.07057649382948086
7.842822061337681e-05,0.07631376856705577
8.703591361485166e-05,0.08160662226350333
9.658832241158708e-05,0.08644222906284749
0.00010718913192051276,0.0906838031741713
0.00011895340673703195,0.09434798668227427
0.0001320088400831418,0.09740579284957858
0.00014649713983072864,0.0998749872375762
0.0001625755666443795,0.10184095497854816
0.00018041864093920718,0.10330685098693107
0.00020022003718155845,0.10442894080227778
0.0002221946860939524,0.1052002037768815
0.0002465811075822604,0.10578921363701077
0.0002736439997074672,0.10619578655642575
0.00030367711180354605,0.10655236576239692
0.00033700643292719284,0.10688071854604256
0.0003739937302478798,0.1072492795733472
0.0004150404757850477,0.10770648938201102
0.00046059220411451084,0.10825009933710743
0.0005111433483440171,0.10894940967703905
0.0005672426068491978,0.10974203882134141
0.0006294988990221888,0.1107039217120009
0.0006985879746785249,0.11173573169387155
0.0007752597488629464,0.11289937980317356
0.000860346441668451,0.11408967226656819
0.0009547716114208065,0.11533115115965607
0.001059560179277617,0.11654499859380889
0.0011758495540521582,0.1177004148657829
0.0013049019780144017,0.1187691089241649
0.001448118227674533,0.11966181545878225
0.0016070528182616384,0.12040577118577996
0.0017834308769319094,0.12087220630319909
0.0019791668678535573,0.12112683591514885
0.002196385372416547,0.1210404310814452
0.002437444150122222,0.12068282914523457
0.002704959730463137,0.11996872268526086
0.0030018358135755923,0.11893763470649095
0.003331294787934677,0.11757925543331081
0.0036969127071950323,0.11588461866084035
0.00410265810582719,0.11391954241442022
0.004552935074866948,0.11163402372647405
0.00505263106533568,0.10914328551376774
0.005607169938205458,0.10638470745117201
0.006222570836730231,0.10348062511215306
0.006905513520162331,0.10038943995807517
0.007663410868007463,0.09720296703397296
0.008504489341802686,0.09392433786103732
0.009437878277775391,0.09059573378252549
0.010473708979594508,0.08726880275645485
0.011623224686798541,0.08393936412681999
0.01289890261253308,0.08069227695911742
0.014314589375234785,0.07749666897739141
0.015885651294280528,0.07444496165169848
0.01762914118095948,0.07150382940176758
0.01956398343517065,0.06874817422782514
0.021711179456945052,0.06616036617664467
0.02409403560239527,0.06378352909011492
0.026738416158399492,0.061623753718562775
0.029673024081888724,0.059689969234856234
0.032929712550971546,0.05800938721264055
0.036543830709572546,0.05656554999813564
0.040554607358408275,0.05540107146117205
0.04500557675700498,0.0544851807570421
0.0499450511585514,0.05386245457249237
0.05542664520663107,0.053506916772818575
0.06150985788580504,0.053476508461671006
0.06826071834272393,0.0537478097172513
0.0757525025877192,0.054298833394374704
0.08406652885618333,0.05511945860976337
0.09329304026284696,0.05645966745633367
0.10353218432956637,0.05853906126770236
0.11489510001873086,0.06063659493415894
0.1275051240713013,0.06203848295296893
0.1414991297434576,0.06733369081715203
0.15702901247293774,0.09003200730808639
0.17426333860096507,0.14148593516214344
0.19338917504552322,0.2168534145403823
0.21461411978584058,0.30330247330139
0.23816855519761607,0.39413583746722025
0.2643081486974108,0.4867379826278744
0.29331662783900486,0.5799290426290896
0.32550885998350565,0.6708650523354363
0.36123426997094304,0.7584320329314731
0.40088063288984643,0.8424941036485497
0.4448782831127585,0.9143451741533178
0.4937047852839004,0.9529390183329527
0.5478901179593945,0.9381590800379394
0.6080224261649427,0.879292120577838
0.67475440531107,0.7988465735596332
0.748810385759003,0.7095099070285791
0.8309941949353403,0.6142178073914305
0.9221978823334341,0.513195541640291
1.0234114021054528,0.41007847667410596
1.135733358343105,0.30700022623228285
1.2603829296797273,0.20702314026605081
1.3987131026472386,0.11633224341587768
1.552225357427048,0.04810110070476421
1.7225859653987874,0.01365373747576771
1.9116440753857036,0.005473597372978122
2.121451784910632,0.006047020522747295
2.35428641432242,0.005943893399663637
2.612675225563332,0.004823864682393879
2.8994228538828812,0.004031446694956695
3.2176417502507353,0.003647251118429248
3.5707859649004625,0.0033098657761721174
3.9626886387014784,0.002936387888918902
4.397603609302721,0.0025908574668678584
4.880251583654434,0.002298285768143314
5.415871378079476,0.002041285838549468
6.010276782070388,0.00180677899119723
6.669919663030129,0.001593853227000885
7.401959996915652,0.0014006835314622026
8.214343584919439,0.001225417307550605
9.115888299750837,0.001063522472085052
10.11637979766207,0.0009133151037623962
11.226677735108158,0.0007720404463535695
12.458833642950081,0.0006388118268175678
13.826221737646593,0.000510405376819753
15.343684089300131,0.000381054677532073
17.02769172225898,0.00024941700244257385
18.896523396912116,0.00013038718533256896
20.970464013232306,4.9991236538935557e-05
23.27202478960412,1.3331423196352219e-05
25.826187606826746,2.4087664644985903e-06
28.66067616948256,2.9148837258920257e-07
31.80625692794119,2.3509666033338343e-08
35.297073027306574,1.261257467614067e-09
39.17101490809261,4.4971796233328397e-11
43.47013158125035,1.0654001173136614e-12
48.241087041653735,1.676730503694231e-14
53.535666774107185,1.7529451359751497e-16
59.411339849650396,1.2173582648358198e-18
65.93188271333541,5.6157746482218736e-21
73.16807143427206,1.7208402529674536e-23
81.19844993184009,3.502760400010126e-26
90.11018251665037,4.736080129547206e-29
100.0,4.253694387113189e-32
