tau,gamma
1e-07,-1.0637239281046764e-05
1.1097524964120721e-07,-5.4629870220113486e-05
1.2315506032928263e-07,-0.00019045072835873896
1.3667163564620074e-07,-0.0004636657953378606
1.5167168884709241e-07,-0.0008338152358727227
1.6831803533309585e-07,-0.0012076695779488858
1.867913599020781e-07,-0.0015390305702373977
2.0729217795953698e-07,-0.0018250461208279979
2.300430119772917e-07,-0.0020718181958734078
2.5529080682395163e-07,-0.0022768451752534597
2.833096101839324e-07,-0.0024330301598426
3.1440354715915e-07,-0.0025404365991881965
3.489101213406774e-07,-0.0025955507020272435
3.872038781812557e-07,-0.002601521406491327
4.2970047043208437e-07,-0.0025570671205770047
4.768611697714474e-07,-0.0024654057895277786
5.291978735958437e-07,-0.0023292667176184
5.872786613189477e-07,-0.0021512451708572532
6.517339604882421e-07,-0.001937533693580194
7.232633896483533e-07,-0.0016905018985638395
8.026433522257174e-07,-0.0014179496681470025
8.907354638610439e-07,-0.0011233214652235641
9.884959046625586e-07,-0.0008137276345107531
1.096985797892384e-06,-0.0004944680564756259
1.217382727739662e-06,-0.0001705952759439246
1.3509935211980278e-06,0.00015127396987362466
1.499268432786047e-06,0.00046817182358860365
1.6638168860761274e-06,0.0007740323557691765
1.8464249428955464e-06,0.0010669941530864733
2.049074689815846e-06,0.0013434086054104246
2.2739657523579273e-06,0.0016014012463063043
2.523539170434766e-06,0.001840379868300615
2.800503894183631e-06,0.002058078009215155
3.107866187782014e-06,0.0022564483436197497
3.4489622604057595e-06,0.002433493204540687
3.827494478516315e-06,0.0025923166722224985
4.247571552536894e-06,0.0027322804019358576
4.713753134116729e-06,0.002856347071477825
5.2310993080562585e-06,0.002966289695420085
5.805225516094895e-06,0.003064249692136038
6.44236350872137e-06,0.003154569276994528
7.149428986597577e-06,0.0032388182540033215
7.934096665797492e-06,0.0033235430582162807
8.804883581643465e-06,0.0034108706451753974
9.771241535346501e-06,0.0035089062640482715
1.0843659686896109e-05,0.0036216755415914154
1.2033778407775906e-05,0.0037582664354276997
1.3354515629298974e-05,0.003925554010473187
1.48202070579886e-05,0.004133550582492051
1.6446761779946626e-05,0.004392555954644128
1.8251834943190462e-05,0.004713858340331644
2.0255019392306664e-05,0.005111523594464859
2.2478058335487252e-05,0.005598463522551069
2.4945081352303165e-05,0.006193088151084692
2.7682866303920665e-05,0.0069100930837356555
3.072112998861759e-05,0.0077732794795929
3.409285069746814e-05,0.008799759819296907
3.783462617131933e-05,0.01002036201498347
4.1987070844439056e-05,0.0114574028845265
4.659525668664687e-05,0.01314997393297142
5.170920242896755e-05,0.015131481030559979
5.7384416483024044e-05,0.017451091050334537
6.368249944718586e-05,0.020164673635657823
7.067181273927492e-05,0.023335669335699055
7.842822061337681e-05,0.027056825252456604
8.703591361485166e-05,0.031414900842879616
9.658832241158708e-05,0.03655527437966803
0.00010718913192051276,0.04259719108535655
0.00011895340673703195,0.04972751557295672
0.0001320088400831418,0.05807060805732082
0.00014649713983072864,0.06778947002131917
0.0001625755666443795,0.0789432138802763
0.00018041864093920718,0.09159517834884066
0.00020022003718155845,0.10575572473556503
0.0002221946860939524,0.12134834373928498
0.0002465811075822604,0.13837545427790407
0.0002736439997074672,0.1566169797277543
0.00030367711180354605,0.17607872416474002
0.00033700643292719284,0.19644932788257186
0.0003739937302478798,0.2176829023172818
0.0004150404757850477,0.2394610873079839
0.00046059220411451084,0.2616010282200308
0.0005111433483440171,0.283880734696355
0.0005672426068491978,0.3059262280335851
0.0006294988990221888,0.32766561768503966
0.0006985879746785249,0.348560965018156
0.0007752597488629464,0.3686552594355017
0.000860346441668451,0.3873735200990418
0.0009547716114208065,0.40476177751472286
0.001059560179277617,0.42039450413262497
0.0011758495540521582,0.43420393468506147
0.0013049019780144017,0.4460784989093509
0.001448118227674533,0.45578514386895336
0.0016070528182616384,0.46355629678309995
0.0017834308769319094,0.4690422465275529
0.0019791668678535573,0.4726932509894062
0.002196385372416547,0.47417500025548426
0.002437444150122222,0.4739587267266881
0.002704959730463137,0.47187961205108675
0.0030018358135755923,0.46824682306662474
0.003331294787934677,0.4631495229582167
0.0036969127071950323,0.4566506977875794
0.00410265810582719,0.4490839071797081
0.004552935074866948,0.4402950180250565
0.00505263106533568,0.4307458285011546
0.005607169938205458,0.42017588293810343
0.006222570836730231,0.4090287290970096
0.006905513520162331,0.39708297189699077
0.007663410868007463,0.38463442663426917
0.008504489341802686,0.37160942265991226
0.009437878277775391,0.3580920912463058
0.010473708979594508,0.34419506516773435
0.011623224686798541,0.32981151996164854
0.01289890261253308,0.31520220605377236
0.014314589375234785,0.3001639897175601
0.015885651294280528,0.2850212127844701
0.01762914118095948,0.26959749964399554
0.01956398343517065,0.2541723113833871
0.021711179456945052,0.2386856726413603
0.02409403560239527,0.2233018911340642
0.026738416158399492,0.20810935217999058
0.029673024081888724,0.19314771825923555
0.032929712550971546,0.1786150500588821
0.036543830709572546,0.16446851254933081
0.040554607358408275,0.15093616853351857
0.04500557675700498,0.13795486833344484
0.0499450511585514,0.12570543736287007
0.05542664520663107,0.11415004969896644
0.06150985788580504,0.10337747096866422
0.06826071834272393,0.09338608778183903
0.0757525025877192,0.08417370524961727
0.08406652885618333,0.07576141793429654
0.09329304026284696,0.06808390144158506
0.10353218432956637,0.06115855513621021
0.11489510001873086,0.054892853163731305
0.1275051240713013,0.04928605230820272
0.1414991297434576,0.04424865307390737
0.15702901247293774,0.039758394760667184
0.17426333860096507,0.03574518788064325
0.19338917504552322,0.0321703273656385
0.21461411978584058,0.028987807237936217
0.23816855519761607,0.026150342264917113
0.2643081486974108,0.023631614070401177
0.29331662783900486,0.021383588301216363
0.32550885998350565,0.019391726413649692
0.36123426997094304,0.01761349675158955
0.40088063288984643,0.016038787099136982
0.4448782831127585,0.014634275096662194
0.4937047852839004,0.013389613145807895
0.5478901179593945,0.012281679591518964
0.6080224261649427,0.011297859552186266
0.67475440531107,0.010423895010309213
0.748810385759003,0.009645091344714512
0.8309941949353403,0.008953734732453561
0.9221978823334341,0.008334391078550796
1.0234114021054528,0.007783248976143032
1.135733358343105,0.0072858067334919336
1.2603829296797273,0.0068399214334125815
1.3987131026472386,0.006433527292747776
1.552225357427048,0.006064334625751873
1.7225859653987874,0.00572366794728615
1.9116440753857036,0.005408095947203842
2.121451784910632,0.005112761867126723
2.35428641432242,0.004832806342937266
2.612675225563332,0.004566721757153428
2.8994228538828812,0.0043088046637670884
3.2176417502507353,0.004059983618516633
3.5707859649004625,0.0038149040250406298
3.9626886387014784,0.003575406601702722
4.397603609302721,0.00333763986736543
4.880251583654434,0.00310293273213939
5.415871378079476,0.002869667677780514
6.010276782070388,0.002637897671434868
6.669919663030129,0.0024082240511740763
7.401959996915652,0.0021795537520623806
8.214343584919439,0.0019538963019378798
9.115888299750837,0.0017293865426670561
10.11637979766207,0.0015077953956571892
11.226677735108158,0.0012879761340312548
12.458833642950081,0.0010720368630323354
13.826221737646593,0.0008578982243791865
15.343684089300131,0.0006394579119909022
17.02769172225898,0.0004175088026805885
18.896523396912116,0.00021786256909028283
20.970464013232306,8.344927715663635e-05
23.27202478960412,2.224409773367205e-05
25.826187606826746,4.018390034630651e-06
28.66067616948256,4.862338994183546e-07
31.80625692794119,3.9215416602212246e-08
35.297073027306574,2.10382005737316e-09
39.17101490809261,7.50140878355514e-11
43.47013158125035,1.777110491094992e-12
48.241087041653735,2.7968204606546852e-14
53.535666774107185,2.9239470101526255e-16
59.411339849650396,2.0305772794225613e-18
65.93188271333541,9.367220888420032e-21
73.16807143427206,2.870394808699227e-23
81.19844993184009,5.842672007779035e-26
90.11018251665037,7.899873110493354e-29
100.0,7.095244366487939e-32
