tau,gamma,ftp
1e-07,7.663720894627694e-06,4.122117870304298e-05
1.1097524964120721e-07,3.916163869147889e-05,0.0002116045768614137
1.2315506032928263e-07,0.00013489946342470582,0.0007369086537688915
1.3667163564620074e-07,0.0003195861243361325,0.0017898160301393425
1.5167168884709241e-07,0.0005433571268763464,0.003203955131610226
1.6831803533309585e-07,0.0007148987662674609,0.004608878384428062
1.867913599020781e-07,0.0008009969403339195,0.005833739993561187
2.0729217795953698e-07,0.0008233688342451007,0.006895013516255088
2.300430119772917e-07,0.0008019455873327911,0.007845851339290793
2.5529080682395163e-07,0.0007417707714640045,0.008704390719771412
2.833096101839324e-07,0.0006565005740194988,0.00946393543662619
3.1440354715915e-07,0.0005905709318591806,0.010130116216804937
3.489101213406774e-07,0.0005784790871076488,0.010695289807552431
3.872038781812557e-07,0.0006040251205181984,0.011180541191076624
4.2970047043208437e-07,0.0006272769832530952,0.011591326892398638
4.768611697714474e-07,0.0006274483244488256,0.011946038827071036
5.291978735958437e-07,0.0006014238453986571,0.01224885573937397
5.872786613189477e-07,0.0005550535573820611,0.012507157055249062
6.517339604882421e-07,0.0005001348754193202,0.012728846453013165
7.232633896483533e-07,0.00044852279796646127,0.012912522296494654
8.026433522257174e-07,0.0004131295270256689,0.01307047296691166
8.907354638610439e-07,0.00039940462152999307,0.013199480085815667
9.884959046625586e-07,0.0004013284761361861,0.013321878787511924
1.096985797892384e-06,0.00041324370172684605,0.013434178899160655
1.217382727739662e-06,0.00044245755393323066,0.01353747167053459
1.3509935211980278e-06,0.0004986271270452334,0.013612240823833771
1.499268432786047e-06,0.0005739079451904301,0.013669146176692123
1.6638168860761274e-06,0.0006462372125871706,0.013725414638302045
1.8464249428955464e-06,0.0007056772155039195,0.013783277292877243
2.049074689815846e-06,0.0007576195700385783,0.013834644301326318
2.2739657523579273e-06,0.0008099070333846997,0.0138639285626447
2.523539170434766e-06,0.0008685528390671191,0.013889182069227473
2.800503894183631e-06,0.0009373934361387119,0.013909249832246498
3.107866187782014e-06,0.001022378853994157,0.013936516257654168
3.4489622604057595e-06,0.0011324441999671542,0.013958212268890945
3.827494478516315e-06,0.0012852597231697706,0.01398170335403174
4.247571552536894e-06,0.001500528970169152,0.014000940186470032
4.713753134116729e-06,0.0017893406256873935,0.014015788787381418
5.2310993080562585e-06,0.0021485676879751127,0.014022013366588218
5.805225516094895e-06,0.0025671564625038158,0.014013986855998467
6.44236350872137e-06,0.0030207211752124805,0.014001405807935317
7.149428986597577e-06,0.003490252644484745,0.013976707587643342
7.934096665797492e-06,0.003968662455190414,0.013949038135270724
8.804883581643465e-06,0.00445081884898271,0.01390380453337185
9.771241535346501e-06,0.004942451011127591,0.01384851456980544
1.0843659686896109e-05,0.005443175047379936,0.013770789920422981
1.2033778407775906e-05,0.005962875019367515,0.013675057912118614
1.3354515629298974e-05,0.0065042464200159395,0.01355580167583249
1.48202070579886e-05,0.007077771698341937,0.01341247834012843
1.6446761779946626e-05,0.007689394146875902,0.013248163534796523
1.8251834943190462e-05,0.008344571776751122,0.013055650400120423
2.0255019392306664e-05,0.009048706706216205,0.012841363765388601
2.2478058335487252e-05,0.00980604252420968,0.012591966139633221
2.4945081352303165e-05,0.010639043955239283,0.012314623402657533
2.7682866303920665e-05,0.011555011142541104,0.011995731788263077
3.072112998861759e-05,0.012564315397141446,0.011641447905731898
3.409285069746814e-05,0.013654781048592595,0.011242399993605231
3.783462617131933e-05,0.014842813832083928,0.010795742703131222
4.1987070844439056e-05,0.016136430753912412,0.0102961695625408
4.659525668664687e-05,0.01755849634090809,0.009744869743765745
5.170920242896755e-05,0.01912653742962486,0.009161662266177505
5.7384416483024044e-05,0.020869925264653068,0.00854444512595974
6.368249944718586e-05,0.022840371895651333,0.007893431108654023
7.067181273927492e-05,0.02507022496796038,0.007195824370772497
7.842822061337681e-05,0.027601610135668603,0.006469475238173756
8.703591361485166e-05,0.03044593253096997,0.005729841709633688
9.658832241158708e-05,0.0336793579112804,0.00499960921182736
0.00010718913192051276,0.03735536927614828,0.004300343314070343
0.00011895340673703195,0.041592975028394444,0.003647358416466996
0.0001320088400831418,0.046493312987892416,0.00307288415574684
0.00014649713983072864,0.05222989824147933,0.0026363899948464962
0.0001625755666443795,0.059004941910325466,0.0024335097926702696
0.00018041864093920718,0.06708913850799932,0.0024996955812828527
0.00020022003718155845,0.07684719632658646,0.0027670547356140767
0.0002221946860939524,0.08868743788924639,0.0031521738022878836
0.0002465811075822604,0.1031439732904345,0.0036098477980161725
0.0002736439997074672,0.1206340044161965,0.004113621737531928
0.00030367711180354605,0.1415090988704774,0.004647688508896065
0.00033700643292719284,0.16572671408427858,0.005189343047148958
0.0003739937302478798,0.19327276079673494,0.00573455582489236
0.0004150404757850477,0.22359295554891323,0.0062818820245871985
0.00046059220411451084,0.25614156977350894,0.006833414631537288
0.0005111433483440171,0.28989734662261046,0.007389016862594587
0.0005672426068491978,0.32368864597670105,0.007945263612733362
0.0006294988990221888,0.35643598182215636,0.008509992718598777
0.0006985879746785249,0.3864023349683875,0.009080593120167537
0.0007752597488629464,0.4123052112737941,0.009668310727495636
0.000860346441668451,0.43181144498322543,0.01027063065587288
0.0009547716114208065,0.44340740086199565,0.010903902020024378
0.001059560179277617,0.4452515836062536,0.011577196499548541
0.0011758495540521582,0.4372309455427368,0.012314033168918149
0.0013049019780144017,0.4208035823064705,0.013136066436668835
0.001448118227674533,0.39726229534064117,0.014054960070433695
0.0016070528182616384,0.36877795432656335,0.01507337378640398
0.0017834308769319094,0.3364962983206903,0.016182106785265424
0.0019791668678535573,0.30211826540691167,0.0173956879302623
0.002196385372416547,0.26658607561215103,0.018711677474559225
0.002437444150122222,0.23101394119396537,0.02015998747393723
0.002704959730463137,0.19629563452116103,0.02174660896056135
0.0030018358135755923,0.16301786348036645,0.023509346269508957
0.003331294787934677,0.13206228422455793,0.025464315737617368
0.0036969127071950323,0.10424601004019053,0.027646112694782794
0.00410265810582719,0.08096674459576494,0.030080321573185947
0.004552935074866948,0.06261416716025557,0.03280140943012954
0.00505263106533568,0.04853437014244495,0.035868047655037996
0.005607169938205458,0.03772601146145383,0.03930704308761354
0.006222570836730231,0.02932787470006974,0.04316795130883747
0.006905513520162331,0.022713208305361915,0.0474444591289529
0.007663410868007463,0.017443677145282825,0.05221361665046811
0.008504489341802686,0.013249057618757804,0.05748933321932294
0.009437878277775391,0.009894029849538811,0.06335317364946008
0.010473708979594508,0.007219296637164732,0.06981167496666311
0.011623224686798541,0.0051129395460749825,0.07691958390441198
0.01289890261253308,0.003539524254033096,0.08469994964003509
0.014314589375234785,0.002449720053664224,0.09315386175385368
0.015885651294280528,0.001746818184824099,0.10231017222477422
0.01762914118095948,0.001331658405669682,0.11208420972629679
0.01956398343517065,0.00111425561173741,0.12251742622163647
0.021711179456945052,0.0010254064820339097,0.13344736645338243
0.02409403560239527,0.00101614149843526,0.1448912740669358
0.026738416158399492,0.0010518791838283,0.1566231060524848
0.029673024081888724,0.0011135112898614198,0.16858031115319844
0.032929712550971546,0.0011907809490735678,0.18053023651761393
0.036543830709572546,0.0012797873700227354,0.19227390174470577
0.040554607358408275,0.0013799923521974186,0.20363108618754872
0.04500557675700498,0.0014902262633466232,0.21426337570031112
0.0499450511585514,0.0016084811640291066,0.22411032209158435
0.05542664520663107,0.0017284247906312093,0.23275166486939414
0.06150985788580504,0.0018433496956211453,0.24016346867650795
0.06826071834272393,0.0019421075079710868,0.2459433176437729
0.0757525025877192,0.0020190746919495177,0.25015134548384743
0.08406652885618333,0.002068298887193443,0.252659197095711
0.09329304026284696,0.002089033683639762,0.2534073702799146
0.10353218432956637,0.0020843619958616773,0.2523389379276196
0.11489510001873086,0.002057665921622091,0.24928912759814256
0.1275051240713013,0.0020171809167044237,0.2445575415221689
0.1414991297434576,0.0019677870039583236,0.23805790410217098
0.15702901247293774,0.0019173231677015806,0.23012704005218432
0.17426333860096507,0.0018692548945479968,0.22069070678904412
0.19338917504552322,0.0018272607018660918,0.2100867433141579
0.21461411978584058,0.0017922064316210594,0.1984631421532314
0.23816855519761607,0.00176677956300498,0.1860780498870265
0.2643081486974108,0.0017551528899810733,0.1732267467061593
0.29331662783900486,0.0017640345955552835,0.16004985529377955
0.32550885998350565,0.0018034547970872418,0.14690927634539377
0.36123426997094304,0.001878876549507998,0.13388234656357845
0.40088063288984643,0.001990169025170294,0.1212979828900614
0.4448782831127585,0.002131028204614704,0.10922203079217854
0.4937047852839004,0.0022924277849103937,0.09786815895255767
0.5478901179593945,0.0024617391021836167,0.08730670704915527
0.6080224261649427,0.002634532159965437,0.07762427754905663
0.67475440531107,0.0028063538098390354,0.068882540349101
0.748810385759003,0.002980537427417277,0.06104527078881235
0.8309941949353403,0.003161559975222903,0.054110925615310695
0.9221978823334341,0.003356022012700859,0.04798347918360617
1.0234114021054528,0.0035714681421564324,0.04264723981080301
1.135733358343105,0.0038119170594282333,0.03800500842169089
1.2603829296797273,0.004081431809112234,0.034010700855276306
1.3987131026472386,0.0043770007928415145,0.03057148021635057
1.552225357427048,0.004698094982243897,0.02763337980027024
1.7225859653987874,0.005035174976028188,0.025129036662754126
1.9116440753857036,0.0053850262876511245,0.02300154347435924
2.121451784910632,0.005735293545566042,0.0212009595089042
2.35428641432242,0.006077969103554879,0.01967949314728866
2.612675225563332,0.006399245862297085,0.018413727752924155
2.8994228538828812,0.006687910452946804,0.017360674659529056
3.2176417502507353,0.006938666407923206,0.01649351741544801
3.5707859649004625,0.007139683380773573,0.01576509321316585
3.9626886387014784,0.007289908068372773,0.01515485873186994
4.397603609302721,0.007376041735573514,0.014623997957813386
4.880251583654434,0.00740006183278424,0.014155777768357265
5.415871378079476,0.007351697963576173,0.013719751262456054
6.010276782070388,0.007228457774162106,0.013300970112767128
6.669919663030129,0.007022845968030176,0.012877402018957823
7.401959996915652,0.006734371006699023,0.012415600909769325
8.214343584919439,0.006373389690906645,0.01187782574244082
9.115888299750837,0.005937294546068537,0.01122128316009865
10.11637979766207,0.005429106631121802,0.01043723198419089
11.226677735108158,0.004842851274480517,0.00950202396001295
12.458833642950081,0.004193131843703083,0.008413342346121878
13.826221737646593,0.0034758754544354205,0.0071253267597009475
15.343684089300131,0.0026691893830735973,0.005572391816258998
17.02769172225898,0.0017807934939861973,0.003766319377880624
18.896523396912116,0.0009409802540061425,0.0020049425246921443
20.970464013232306,0.00036263633564988696,0.00077542559568709
23.27202478960412,9.692349951346177e-05,0.00020757472367102862
25.826187606826746,1.752891321382152e-05,3.7564991567660284e-05
28.66067616948256,2.1220166322928552e-06,4.5487613222818575e-06
31.80625692794119,1.711756846680868e-07,3.6697262828920306e-07
35.297073027306574,9.183896369367257e-09,1.9689638048242977e-08
39.17101490809261,3.2747235497778214e-10,7.020906066435229e-10
43.47013158125035,7.758033982583047e-12,1.6633105406140615e-11
48.241087041653735,1.2209673082273575e-13,2.6177427767452337e-13
53.535666774107185,1.2764677186075016e-15,2.736738395135227e-15
59.411339849650396,8.864621999175116e-18,1.9005700395742027e-17
65.93188271333541,4.0893247994193243e-20,8.767491389956533e-20
73.16807143427206,1.2530907951687829e-22,2.686620447128422e-22
81.19844993184009,2.5506591960523666e-25,5.468600834195752e-25
90.11018251665037,3.448744755648135e-28,7.394091974224124e-28
100.0,3.0974784882414453e-31,6.6409788408053625e-31
