tau,gamma
1e-07,5.993265851398596e-06
1.1097524964120721e-07,3.0630793573336306e-05
1.2315506032928263e-07,0.00010555288351060274
1.3667163564620074e-07,0.0002502316549540091
1.5167168884709241e-07,0.0004256356519388744
1.6831803533309585e-07,0.000558025072522478
1.867913599020781e-07,0.0006129175192501361
2.0729217795953698e-07,0.0005948474359411299
2.300430119772917e-07,0.0005165756382139976
2.5529080682395163e-07,0.0003918862375948193
2.833096101839324e-07,0.00023348113356222309
3.1440354715915e-07,6.266979895769967e-05
3.489101213406774e-07,-9.832415880212756e-05
3.872038781812557e-07,-0.0002307770581236743
4.2970047043208437e-07,-0.00031675153848997683
4.768611697714474e-07,-0.0003463955833084641
5.291978735958437e-07,-0.00031278319568498787
5.872786613189477e-07,-0.00021522446040952897
6.517339604882421e-07,-5.999223095296841e-05
7.232633896483533e-07,0.0001453968534266724
8.026433522257174e-07,0.00038649862257961014
8.907354638610439e-07,0.0006490469882969247
9.884959046625586e-07,0.0009161974610868729
1.096985797892384e-06,0.0011696517510385248
1.217382727739662e-06,0.0013963748936953616
1.3509935211980278e-06,0.0015816464207311697
1.499268432786047e-06,0.001720098522968726
1.6638168860761274e-06,0.001808494035165406
1.8464249428955464e-06,0.0018499180773814828
2.049074689815846e-06,0.0018540909834599871
2.2739657523579273e-06,0.0018309558490310015
2.523539170434766e-06,0.0017969084697007844
2.800503894183631e-06,0.0017661543656391746
3.107866187782014e-06,0.0017565357284249601
3.4489622604057595e-06,0.001784304042235552
3.827494478516315e-06,0.001865280490193668
4.247571552536894e-06,0.002013577304178187
4.713753134116729e-06,0.002241151603864268
5.2310993080562585e-06,0.0025556993216918644
5.805225516094895e-06,0.00296335427454485
6.44236350872137e-06,0.0034631913426310963
7.149428986597577e-06,0.004052641260339506
7.934096665797492e-06,0.004724102791243196
8.804883581643465e-06,0.005464538885515866
9.771241535346501e-06,0.006264309631773682
1.0843659686896109e-05,0.007102264937037301
1.2033778407775906e-05,0.007969543039637227
1.3354515629298974e-05,0.008843574682618918
1.48202070579886e-05,0.009716111484069227
1.6446761779946626e-05,0.010572097966093779
1.8251834943190462e-05,0.011402970172278402
2.0255019392306664e-05,0.012208047861293505
2.2478058335487252e-05,0.012980322391379827
2.4945081352303165e-05,0.013735929335534074
2.7682866303920665e-05,0.014474344339448372
3.072112998861759e-05,0.015223608302035785
3.409285069746814e-05,0.01599360791551638
3.783462617131933e-05,0.016818256353775367
4.1987070844439056e-05,0.017721361478575257
4.659525668664687e-05,0.018739875463224913
5.170920242896755e-05,0.01991443991534792
5.7384416483024044e-05,0.021286366795458558
6.368249944718586e-05,0.022916230136250795
7.067181273927492e-05,0.024854777450506623
7.842822061337681e-05,0.02718818130322558
8.703591361485166e-05,0.029987723613690734
9.658832241158708e-05,0.0333805500459397
0.00010718913192051276,0.03748283876190356
0.00011895340673703195,0.042490557124151576
0.0001320088400831418,0.048612855614237456
0.00014649713983072864,0.05617322997669271
0.0001625755666443795,0.0655367212761588
0.00018041864093920718,0.07709943421427655
0.00020022003718155845,0.09118246104339438
0.0002221946860939524,0.10799296766851375
0.0002465811075822604,0.12759872561892313
0.0002736439997074672,0.14980665897209372
0.00030367711180354605,0.17455100877573507
0.00033700643292719284,0.20139392367538758
0.0003739937302478798,0.23017073269276597
0.0004150404757850477,0.2603005778138029
0.00046059220411451084,0.2913341123006893
0.0005111433483440171,0.3225575705609152
0.0005672426068491978,0.35305125437046364
0.0006294988990221888,0.3820516126254048
0.0006985879746785249,0.4079536513646313
0.0007752597488629464,0.4294904422933401
0.000860346441668451,0.4445728684029374
0.0009547716114208065,0.45277402274341055
0.001059560179277617,0.45397293812214956
0.0011758495540521582,0.44919651189331067
0.0013049019780144017,0.4403933092794866
0.001448118227674533,0.4288962047670325
0.0016070528182616384,0.41629117307098873
0.0017834308769319094,0.4032325102583116
0.0019791668678535573,0.3909586201646363
0.002196385372416547,0.3799866889880592
0.002437444150122222,0.3711205743962372
0.002704959730463137,0.3646522999852882
0.0030018358135755923,0.3608947419535315
0.003331294787934677,0.3598988856429754
0.0036969127071950323,0.3615643541244107
0.00410265810582719,0.36576823372684664
0.004552935074866948,0.3720616858316476
0.00505263106533568,0.3802095243250996
0.005607169938205458,0.38944106638597503
0.006222570836730231,0.39941510910521755
0.006905513520162331,0.40909240301015776
0.007663410868007463,0.4179733111886733
0.008504489341802686,0.4248822996817029
0.009437878277775391,0.42901529630733837
0.010473708979594508,0.42926431561732403
0.011623224686798541,0.4246508637341579
0.01289890261253308,0.4148068580361099
0.014314589375234785,0.39933181893843966
0.015885651294280528,0.3794044244073606
0.01762914118095948,0.35567205246880346
0.01956398343517065,0.3294874786209151
0.021711179456945052,0.30163272180492623
0.02409403560239527,0.27301096930470997
0.026738416158399492,0.24441880923255607
0.029673024081888724,0.2163566658259783
0.032929712550971546,0.18956719269775946
0.036543830709572546,0.1643028176850038
0.040554607358408275,0.1411032238702337
0.04500557675700498,0.12011154831702439
0.0499450511585514,0.10161771477540654
0.05542664520663107,0.08568450480285257
0.06150985788580504,0.07224197530882756
0.06826071834272393,0.06112296011315365
0.0757525025877192,0.05199462684517823
0.08406652885618333,0.04453172272404353
0.09329304026284696,0.03838639740327278
0.10353218432956637,0.03332293187795072
0.11489510001873086,0.029108890067439424
0.1275051240713013,0.025604911930416373
0.1414991297434576,0.022669770436578217
0.15702901247293774,0.0202193106665536
0.17426333860096507,0.018169943034238183
0.19338917504552322,0.016464529143330308
0.21461411978584058,0.015052430262606987
0.23816855519761607,0.013889154774857651
0.2643081486974108,0.012941197930426435
0.29331662783900486,0.012170288180592076
0.32550885998350565,0.011551864155760322
0.36123426997094304,0.011051720291794728
0.40088063288984643,0.010652067303735052
0.4448782831127585,0.010323305504144934
0.4937047852839004,0.010053382389902893
0.5478901179593945,0.009818774155435596
0.6080224261649427,0.009610153138481743
0.67475440531107,0.009411082791492166
0.748810385759003,0.009212624295689835
0.8309941949353403,0.009007038721763621
0.9221978823334341,0.00878432704892066
1.0234114021054528,0.008544044891921777
1.135733358343105,0.00827543750318817
1.2603829296797273,0.007982747301003082
1.3987131026472386,0.007656762145365269
1.552225357427048,0.0073024616021402245
1.7225859653987874,0.006914604697492531
1.9116440753857036,0.006496221887051786
2.121451784910632,0.006048159877325787
2.35428641432242,0.005571160603232556
2.612675225563332,0.005072205503183898
2.8994228538828812,0.004550697060879055
3.2176417502507353,0.004016171600635965
3.5707859649004625,0.003469257018007271
3.9626886387014784,0.0029202908952525473
4.397603609302721,0.002374546005177589
4.880251583654434,0.0018410404369017433
5.415871378079476,0.0013296837269251354
6.010276782070388,0.0008474793048339901
6.669919663030129,0.00040641338525621734
7.401959996915652,1.289704499500257e-05
8.214343584919439,-0.000321993121798169
9.115888299750837,-0.000590551099466391
10.11637979766207,-0.0007852272971865857
11.226677735108158,-0.0008997268680801736
12.458833642950081,-0.0009353275334792099
13.826221737646593,-0.0008875189114962422
15.343684089300131,-0.0007512829718460608
17.02769172225898,-0.000533751075955845
18.896523396912116,-0.0002917949125098352
20.970464013232306,-0.00011425993404293588
23.27202478960412,-3.075005458847341e-05
25.826187606826746,-5.577222244275013e-06
28.66067616948256,-6.759614781609085e-07
31.80625692794119,-5.455351095587198e-08
35.297073027306574,-2.9274651741322343e-09
39.17101490809261,-1.0439350579930088e-10
43.47013158125035,-2.4732289051284254e-12
48.241087041653735,-3.892442952220622e-14
53.535666774107185,-4.0693994030942805e-16
59.411339849650396,-2.826061555550445e-18
65.93188271333541,-1.3036871124684878e-20
73.16807143427206,-3.994886599350014e-23
81.19844993184009,-8.131570117877411e-26
90.11018251665037,-1.0994691657706297e-28
100.0,-9.874845512410427e-32
