tau,gamma
1e-07,-8.349949760729834e-06
1.1097524964120721e-07,-4.289777623001319e-05
1.2315506032928263e-07,-0.00014967263805307468
1.3667163564620074e-07,-0.0003650590046943062
1.5167168884709241e-07,-0.0006589168120799016
1.6831803533309585e-07,-0.0009602103709880475
1.867913599020781e-07,-0.0012336197101888826
2.0729217795953698e-07,-0.0014763561043360355
2.300430119772917e-07,-0.001691922043259827
2.5529080682395163e-07,-0.0018758637054331242
2.833096101839324e-07,-0.0020197687697001932
3.1440354715915e-07,-0.0021204398460420155
3.489101213406774e-07,-0.002171613390283927
3.872038781812557e-07,-0.0021734207501445785
4.2970047043208437e-07,-0.0021225194692484806
4.768611697714474e-07,-0.002020310630918698
5.291978735958437e-07,-0.00186837459513625
5.872786613189477e-07,-0.0016684861839892714
6.517339604882421e-07,-0.0014265119932270387
7.232633896483533e-07,-0.0011449759298850597
8.026433522257174e-07,-0.0008321303563289787
8.907354638610439e-07,-0.0004924885467116922
9.884959046625586e-07,-0.00013366919183037688
1.096985797892384e-06,0.00023761828535317573
1.217382727739662e-06,0.0006162215953940856
1.3509935211980278e-06,0.0009945247884360028
1.499268432786047e-06,0.0013702915172792397
1.6638168860761274e-06,0.0017379173131646468
1.8464249428955464e-06,0.0020969429979565057
2.049074689815846e-06,0.0024454599749801353
2.2739657523579273e-06,0.0027830781157046347
2.523539170434766e-06,0.0031115384429042407
2.800503894183631e-06,0.0034295065131983303
3.107866187782014e-06,0.003741084896140622
3.4489622604057595e-06,0.004043964109112681
3.827494478516315e-06,0.004342361750286719
4.247571552536894e-06,0.004633532843806641
4.713753134116729e-06,0.004919755940527866
5.2310993080562585e-06,0.005199149574289118
5.805225516094895e-06,0.005470561751844926
6.44236350872137e-06,0.005733945911193195
7.149428986597577e-06,0.005984599551697447
7.934096665797492e-06,0.0062251536410998206
8.804883581643465e-06,0.006449130252148222
9.771241535346501e-06,0.006661190418475092
1.0843659686896109e-05,0.0068561138574468215
1.2033778407775906e-05,0.007039677822307322
1.3354515629298974e-05,0.0072119068392552535
1.48202070579886e-05,0.0073788436440865735
1.6446761779946626e-05,0.007548074578390793
1.8251834943190462e-05,0.007726169119418625
2.0255019392306664e-05,0.007928600607913514
2.2478058335487252e-05,0.008164135757942597
2.4945081352303165e-05,0.008454750770552868
2.7682866303920665e-05,0.00881350517478192
3.072112998861759e-05,0.009267341565889046
3.409285069746814e-05,0.009835312769324731
3.783462617131933e-05,0.010549026644751186
4.1987070844439056e-05,0.011435203296828364
4.659525668664687e-05,0.012531597566679122
5.170920242896755e-05,0.013876203639274559
5.7384416483024044e-05,0.015516164882487572
6.368249944718586e-05,0.017509123802450947
7.067181273927492e-05,0.01992055865334098
7.842822061337681e-05,0.02284869309772729
8.703591361485166e-05,0.02639967382643042
9.658832241158708e-05,0.030749535830903504
0.00010718913192051276,0.036109290329943595
0.00011895340673703195,0.042837427988131616
0.0001320088400831418,0.051315755161908214
0.00014649713983072864,0.06188532763368023
0.0001625755666443795,0.07465826969499861
0.00018041864093920718,0.08967448388957285
0.00020022003718155845,0.1067661616735831
0.0002221946860939524,0.12568208555495036
0.0002465811075822604,0.14626109604524062
0.0002736439997074672,0.16811739900575373
0.00030367711180354605,0.19112067590060378
0.00033700643292719284,0.21476335124904095
0.0003739937302478798,0.2388568318923791
0.0004150404757850477,0.26289328350573427
0.00046059220411451084,0.28653005823431105
0.0005111433483440171,0.30940061151508214
0.0005672426068491978,0.33096487872798824
0.0006294988990221888,0.3510810078865245
0.0006985879746785249,0.36910356318706883
0.0007752597488629464,0.3851148111931533
0.000860346441668451,0.39860145906910066
0.0009547716114208065,0.40977406573357666
0.001059560179277617,0.4184913704763164
0.0011758495540521582,0.42494331563389276
0.0013049019780144017,0.4294105202985451
0.001448118227674533,0.43195744461206137
0.0016070528182616384,0.4331414787279191
0.0017834308769319094,0.43290105263071293
0.0019791668678535573,0.43186934620310247
0.002196385372416547,0.4299424695600832
0.002437444150122222,0.4276369566223787
0.002704959730463137,0.42489577459116545
0.0030018358135755923,0.42199833713288526
0.003331294787934677,0.4189986304957
0.0036969127071950323,0.41589790466658766
0.00410265810582719,0.41286418041651995
0.004552935074866948,0.4096508363384289
0.00505263106533568,0.4064904424775377
0.005607169938205458,0.40297783282836314
0.006222570836730231,0.3993254626865394
0.006905513520162331,0.39509365445596945
0.007663410868007463,0.3903754270727419
0.008504489341802686,0.3848222437124124
0.009437878277775391,0.3783401517229126
0.010473708979594508,0.3707742340020259
0.011623224686798541,0.3618488150940089
0.01289890261253308,0.3516449607231953
0.014314589375234785,0.3398060438696178
0.015885651294280528,0.3266132197459212
0.01762914118095948,0.31180419448150126
0.01956398343517065,0.2957572888156294
0.021711179456945052,0.27846207633096665
0.02409403560239527,0.26025157748866085
0.026738416158399492,0.2413866923378788
0.029673024081888724,0.2220787148027096
0.032929712550971546,0.20276082774002918
0.036543830709572546,0.1835454029887893
0.040554607358408275,0.16488779341159482
0.04500557675700498,0.14686987882440292
0.0499450511585514,0.12983789141204136
0.05542664520663107,0.11389003652384805
0.06150985788580504,0.09920911444869814
0.06826071834272393,0.08590503786357365
0.0757525025877192,0.07400438840987356
0.08406652885618333,0.06356877042036624
0.09329304026284696,0.05449845720911918
0.10353218432956637,0.046743117799569925
0.11489510001873086,0.04012982534255475
0.1275051240713013,0.03453437847706807
0.1414991297434576,0.029783016430523872
0.15702901247293774,0.025756275977059293
0.17426333860096507,0.022332680858180243
0.19338917504552322,0.01942073998133227
0.21461411978584058,0.016947819667811042
0.23816855519761607,0.014845041663705705
0.2643081486974108,0.013068763343723809
0.29331662783900486,0.011566487673729867
0.32550885998350565,0.010309532359029785
0.36123426997094304,0.009258444188303107
0.40088063288984643,0.008391763579929823
0.4448782831127585,0.007680166452980608
0.4937047852839004,0.007105706196881993
0.5478901179593945,0.006646253395675855
0.6080224261649427,0.006285907913221239
0.67475440531107,0.006007651399742376
0.748810385759003,0.005797027630559549
0.8309941949353403,0.005641391009496246
0.9221978823334341,0.005527249516466145
1.0234114021054528,0.0054461814315360756
1.135733358343105,0.005385282207658089
1.2603829296797273,0.0053395648557771
1.3987131026472386,0.005297019066731705
1.552225357427048,0.005254951364405673
1.7225859653987874,0.005203689748133226
1.9116440753857036,0.005141184373445918
2.121451784910632,0.005061726922045517
2.35428641432242,0.004962701149867399
2.612675225563332,0.004843381054303717
2.8994228538828812,0.004700245721304348
3.2176417502507353,0.004536521179328335
3.5707859649004625,0.004348584498154747
3.9626886387014784,0.00414162721747852
4.397603609302721,0.003913703158400675
4.880251583654434,0.0036699839592070813
5.415871378079476,0.0034116417321944947
6.010276782070388,0.0031421736009321685
6.669919663030129,0.0028655491977854944
7.401959996915652,0.002583390447190509
8.214343584919439,0.00230116738457739
9.115888299750837,0.0020192561408176836
10.11637979766207,0.0017423883311291249
11.226677735108158,0.0014713194405954588
12.458833642950081,0.0012098269267882586
13.826221737646593,0.0009567442947155088
15.343684089300131,0.0007056471345500276
17.02769172225898,0.0004570934433341613
18.896523396912116,0.00023740055527393994
20.970464013232306,9.072298786458162e-05
23.27202478960412,2.415824803012362e-05
25.826187606826746,4.362305591805246e-06
28.66067616948256,5.277551833575059e-07
31.80625692794119,4.256110120297473e-08
35.297073027306574,2.2832419415823767e-09
39.17101490809261,8.141061531036977e-11
43.47013158125035,1.928637269689171e-12
48.241087041653735,3.0352877577530115e-14
53.535666774107185,3.173251098355198e-16
59.411339849650396,2.203709408194802e-18
65.93188271333541,1.0165892406843453e-20
73.16807143427206,3.1151313307881794e-23
81.19844993184009,6.340831647429381e-26
90.11018251665037,8.573434369754105e-29
100.0,7.70020111117722e-32
