freq,Zreal,Zimag,sigma_re,sigma_im
1000000.0,0.9997305830130921,-0.0009101716527593522,0.0031516864155836295,0.0008983257667658463
794328.2347242822,0.9998051274224252,-0.0011049974341109448,0.003151902330658509,0.0008983277710882613
630957.344480193,0.9998954101753458,-0.001329107916760886,0.0031521638330202304,0.0008983305544466632
501187.2336272725,1.0000009247408583,-0.0015888632999833672,0.0031524694565100916,0.0008983344194637246
398107.17055349686,1.0001215601391726,-0.0018938394663264968,0.003152818880825108,0.0008983398323906509
316227.7660168379,1.0002590015312498,-0.00225684901170162,0.003153216988481423,0.0008983475071251847
251188.6431509582,1.000417666219501,-0.002693049158261839,0.003153676576372263,0.0008983585003972501
199526.2314968879,1.0006044701366115,-0.0032188064915077237,0.0031542176800227937,0.0008983743207030914
158489.3192461114,1.0008275232515411,-0.0038514346464134566,0.003154863795451135,0.0008983970809862169
125892.5411794166,1.0010947865516946,-0.004610481237943574,0.003155637989645046,0.0008984297575775218
100000.0,1.0014139274602083,-0.005520140098570589,0.003156562482453156,0.0008984766309042411
79432.82347242821,1.001793792552909,-0.006611515515930855,0.0031576629137430295,0.0008985439624877713
63095.7344480193,1.002246717191359,-0.007923646282638216,0.0031589750361527102,0.0008986409314666722
50118.72336272724,1.0027903445037236,-0.009503288150229536,0.0031605499885463315,0.0008987808639429851
39810.71705534969,1.0034481914315072,-0.01140451629216816,0.003162455942351123,0.0008989828713035326
31622.776601683792,1.0042493536174144,-0.013689365230360077,0.003164777255981371,0.0008992741476069891
25118.864315095827,1.0052285013459576,-0.016429932596589876,0.003167614476229976,0.0008996933006865476
19952.623149688792,1.0064271566358742,-0.019711391335728284,0.003171088057535026,0.000900295159356478
15848.93192461114,1.0078964822377676,-0.02363495288325894,0.0031753464723896425,0.000901157519697974
12589.254117941662,1.0097011680970513,-0.028320121045747913,0.003180577519435103,0.0009023903180198395
10000.0,1.0119238771038546,-0.0339061500238132,0.0031870212802609967,0.0009041477814567667
7943.282347242814,1.01467005124532,-0.04055302530547601,0.0031949841634646963,0.0009066441879290495
6309.57344480193,1.0180734299483953,-0.048442323885562064,0.0032048550778190498,0.0009101738689764335
5011.8723362727205,1.0223031782698595,-0.05777795279744797,0.003217126371806317,0.0009151357910503016
3981.0717055349687,1.02757389248377,-0.06878602195931469,0.0032324232721064306,0.0009220620083363064
3162.2776601683795,1.0341597427463867,-0.08171201601709135,0.003251545568390447,0.0009316467456211413
2511.8864315095802,1.0424133850711816,-0.09681212307926566,0.0032755235272308074,0.0009447678984902294
1995.2623149688789,1.052788793274674,-0.11433432891521814,0.0033056857876988628,0.0009624847190284566
1584.8931924611124,1.0658646487114414,-0.13448413968000275,0.0033437297535776327,0.0009859853512631162
1258.9254117941662,1.0823613552793596,-0.15737022942824783,0.003391774604789657,0.0010164501192294981
1000.0,1.1031404365432005,-0.18292785562626107,0.003452364285602182,0.0010548001426373983
794.3282347242813,1.1291710220649533,-0.21082367744698188,0.003528375395973589,0.0011013271954819221
630.957344480193,1.1614465932674296,-0.2403555484526931,0.003622779209131925,0.001155254511963474
501.187233627272,1.200839980247673,-0.27037421807279044,0.0037382194542117148,0.0012143466576196667
398.10717055349687,1.2478998058606239,-0.29926622468616126,0.0038764107395630252,0.0012747368057379354
316.227766016838,1.3026175492467984,-0.32504011324261683,0.004037439411675558,0.0013311343363001636
251.18864315095797,1.3642244636952296,-0.34554249708671986,0.004219141057927126,0.0013774959481710218
199.5262314968879,1.431098065329461,-0.3587924217599739,0.004416795748860608,0.0014080991160941726
158.48931924611125,1.500851105348422,-0.3633681148997468,0.004623367464924533,0.001418781857018451
125.89254117941664,1.5706276358730629,-0.35873152136753905,0.004830371392119804,0.0014079729398530879
100.0,1.6375481079179504,-0.34536913689186216,0.0050292015899188434,0.001377129957846327
79.43282347242804,1.6991708833657466,-0.3246862921997285,0.005212521440769303,0.001330392237446894
63.09573444801929,1.753824483807637,-0.29869234202309614,0.005375274638981119,0.0012735692531920468
50.11872336272725,1.8007254979980565,-0.2695941786066985,0.005515054700922662,0.0012128393473631153
39.81071705534969,1.8398890649986281,-0.23943041469937787,0.005631848954587959,0.0011535909359955637
31.622776601683796,1.8719078670299334,-0.20983404168850886,0.0057273831385668125,0.0010997056682663072
25.118864315095767,1.897695554374622,-0.18194463039088868,0.005804354955094085,0.0010533641689694495
19.95262314968879,1.9182683767618287,-0.15643826506059777,0.005865779352550272,0.0010152644724948211
15.848931924611108,1.9345986208506716,-0.1336215359587364,0.005914547729558551,0.0009850519307223787
12.589254117941664,1.9475387491576903,-0.11354168748732416,0.005953198720513152,0.0009617731991975759
10.0,1.9577972052848365,-0.09608377667391887,0.005983844000620729,0.0009442405251858925
7.943282347242805,1.9659441185602922,-0.08104381255586003,0.006008184043092791,0.0009312703430968018
6.30957344480193,1.972430259767326,-0.0681781494866557,0.006027563937047977,0.0009218102202573354
5.011872336272715,1.977609223769141,-0.05723408275107364,0.006043039163581693,0.0009149872170017832
3.981071705534969,1.9817579316824858,-0.04796727106507129,0.006055436551287474,0.0009101099759544748
3.1622776601683795,1.9850936409768989,-0.04015064762020851,0.006065404920055568,0.000906648326503544
2.5118864315095766,1.9877872339733345,-0.03357819504978478,0.00607345467815397,0.0009042050977869833
1.9952623149688788,1.9899732466817555,-0.028065854745515855,0.0060799877230692,0.0009024879489647094
1.584893192461111,1.9917573356767357,-0.023451014813071817,0.006085319713162297,0.0009012846650103615
1.2589254117941662,1.9932219006286864,-0.019591431316301016,0.0060896968440261505,0.0009004429482728849
1.0,1.9944304996638271,-0.016364019085038532,0.006093309027374753,0.0008998545643471869
0.7943282347242805,1.9954315593985426,-0.013663650068351435,0.006096300968432304,0.0008994432354694662
0.6309573444801929,1.9962617030316903,-0.011401898684936476,0.006098782105946212,0.0008991555687633548
0.5011872336272715,1.9969488156087807,-0.009505584953654321,0.006100835769335805,0.0008989543613048214
0.3981071705534969,1.9975147825337372,-0.007914995598391136,0.006102527360953771,0.0008988137326500459
0.31622776601683794,1.99797773350475,-0.006581782042369006,0.0061039110612178885,0.0008987156455701466
0.2511886431509577,1.9983536297598543,-0.005466678474502663,0.00610503457163822,0.0008986474670691836
0.1995262314968879,1.9986571333716707,-0.00453728431499311,0.006105941712350525,0.0008986002925236875
0.1584893192461111,1.9989018424802576,-0.0037661692846673715,0.006106673124715556,0.0008985678120822842
0.12589254117941662,1.9991001024638804,-0.003129482157660847,0.006107265706560293,0.0008985455471985905
0.1,1.999262661205312,-0.0026061085106771787,0.006107751581519245,0.0008985303298500871
0.07943282347242805,1.999398405499834,-0.002177279843748743,0.006108157310970689,0.0008985199369901969
0.0630957344480193,1.9995143071326087,-0.001826443997256356,0.006108503732717495,0.0008985128254735271
0.05011872336272714,1.9996155737758516,-0.001539205257526639,0.006108806411907454,0.0008985079359650988
0.039810717055349686,1.999705911249876,-0.0013032192228845693,0.006109076424848309,0.0008985045480487056
0.031622776601683784,1.9997877913520479,-0.001108023106660737,0.006109321159489368,0.0008985021751202163
0.02511886431509577,1.999862661181714,-0.0009448465965308769,0.006109544941053879,0.0008985004901227033
0.019952623149688792,1.9999310910191106,-0.0008064693558274245,0.006109749474022397,0.0008984992744217336
0.01584893192461111,1.9999929177975058,-0.0006871693718378165,0.006109934270950775,0.000898498383208558
0.01258925411794166,2.00004747391854,-0.0005827393860248467,0.006110097336379362,0.0008984977219198339
0.01,2.0000939542230722,-0.0004904613315771486,0.006110236263686991,0.0008984972294297285
