freq,Zreal,Zimag,sigma_re,sigma_im
1000000.0,1.000085034836402,-0.0014208545546485524,0.0022335433296453737,0.002232991975756018
794328.2347242822,1.0003130333823687,-0.0016311894840382645,0.0022335499043403552,0.0022329983009744263
630957.344480193,1.0005588575162248,-0.0018273634696840725,0.0022335569938993,0.002233005121482065
501187.2336272725,1.000807055806075,-0.002015620463039291,0.002233564155948753,0.0022330120118380153
398107.17055349686,1.0010436797226456,-0.002211072784977136,0.002233570993738418,0.0022330185906201615
316227.7660168379,1.0012598622070565,-0.0024361263967285995,0.0022335772595203558,0.002233024619882202
251188.6431509582,1.0014534529585957,-0.0027176445779331488,0.0022335829022110416,0.002233030051018812
199526.2314968879,1.001628576357774,-0.003084460558135496,0.002233588056045549,0.0022330350139075123
158489.3192461114,1.0017940514766517,-0.003566384336750939,0.002233592997733325,0.0022330397758153517
125892.5411794166,1.0019619916050428,-0.004194839256679755,0.00223359811042483,0.002233044706938568
100000.0,1.0021474793787943,-0.005004400365454627,0.002233603880746177,0.002233050277851189
79432.82347242821,1.0023694326863806,-0.0060342461527912354,0.0022336109328155796,0.0022330570926519825
63095.7344480193,1.0026521489467022,-0.007328811650683309,0.0022336200851202333,0.0022330659442520383
50118.72336272724,1.0030267219052622,-0.008937432838145902,0.0022336324075601594,0.002233077869992555
39810.71705534969,1.0035315150964697,-0.010913331304926865,0.002233649255609959,0.002233094185435894
31622.776601683792,1.0042111937887988,-0.013312855242542212,0.0022336722682723843,0.00223311648355323
25118.864315095827,1.0051145666177002,-0.01619621448966443,0.002233703339988627,0.002233146609222258
19952.623149688792,1.0062924125144042,-0.019630617306915198,0.0022337446065637426,0.0022331866478616166
15848.93192461114,1.0077969378430558,-0.023695739001691047,0.0022337985023102905,0.0022332389836873866
12589.254117941662,1.0096841649217794,-0.02849042108246023,0.00223386793847471,0.0022333064763203968
10000.0,1.0120196941759936,-0.03413901232217106,0.002233956629769714,0.0022333927821497285
7943.282347242814,1.0148874792999067,-0.040795898337648795,0.002234069573261477,0.0022335028251166634
6309.57344480193,1.0184008217854545,-0.048647206655741564,0.002234213670978654,0.0022336434091060372
5011.8723362727205,1.0227147083009935,-0.05790912328297549,0.002234398482921869,0.0022338239594219635
3981.0717055349687,1.028038796752424,-0.06882258992348986,0.0022346370965310516,0.0022340573798113363
3162.2776601683795,1.0346507818424315,-0.08164423392126928,0.0022349470984803664,0.0022343610105093697
2511.8864315095802,1.0429103994180613,-0.09663297202862223,0.00223535162444432,0.0022347576613898734
1995.2623149688789,1.0532745753427115,-0.11403064880615472,0.002235880418552305,0.002235276649106774
1584.8931924611124,1.0663136283320978,-0.13403335922302895,0.0022365707198298856,0.0022359546517321948
1258.9254117941662,1.0827262198598913,-0.15674811483594814,0.002237467558819556,0.0022368359603808312
1000.0,1.1033459535610026,-0.18212842487013747,0.0022386226548416453,0.002237971317247817
794.3282347242813,1.129124979092027,-0.20988481174577356,0.0022400906160484966,0.0022394140487763366
630.957344480193,1.1610720589698882,-0.23937579928335703,0.002241920878653871,0.0022412119518528126
501.187233627272,1.2001206555799897,-0.26950340274627477,0.002244144436637545,0.0022433940287304483
398.10717055349687,1.2469159077629464,-0.2986606260677383,0.0022467566540107994,0.0022459534319569045
316.227766016838,1.3015440809607082,-0.3247934261558,0.0022497012838569325,0.002248831819663482
251.18864315095797,1.3632772332575633,-0.3456261339791166,0.0022528643036963526,0.002251913761840878
199.5262314968879,1.4304437439874764,-0.3590449904939129,0.0022560856346048415,0.00225503917252434
158.48931924611125,1.5005267478112978,-0.3635516712522227,0.002259189682920044,0.0022580344442516423
125.89254117941664,1.5705173140354152,-0.35863127451845195,0.0022620245697913864,0.0022607517978838997
100.0,1.6374319831529147,-0.3448834477528212,0.0022644930788056675,0.002263099663747201
79.43282347242804,1.6988175399638468,-0.32386036813349967,0.002266562597290734,0.0022650515042157296
63.09573444801929,1.753075427134167,-0.29768664816209855,0.002268253873841828,0.002266633347698426
50.11872336272725,1.7995348711336119,-0.2686157837382966,0.002269618847133022,0.002267900764183952
39.81071705534969,1.8383142401965935,-0.2386667553832853,0.002270719277961288,0.0022689172398880353
31.622776601683796,1.8700713898917714,-0.20941441821474402,0.002271612678968778,0.0022697403642049844
25.118864315095767,1.8957439842809474,-0.18193247702610735,0.002272346134311192,0.002270416170374655
19.95262314968879,1.916343766648003,-0.15684250013912612,0.0022729555087769157,0.002270978884668913
15.848931924611108,1.9328252953037104,-0.13441282766629778,0.0022734671916444754,0.0022714530881944935
12.589254117941664,1.9460199997105583,-0.11466494743057931,0.0022739004378009168,0.0022718563187311357
10.0,1.9566151089896018,-0.09746497081883532,0.0022742693942542093,0.0022722012269017944
7.943282347242805,1.9651581685333452,-0.082593339706191,0.0022745845752717934,0.0022724970935868016
6.30957344480193,1.9720737182761854,-0.06979410927722451,0.0022748538640300106,0.002272750824158672
5.011872336272715,1.9776844118896082,-0.05880791826619786,0.0022750832066621087,0.0022729676107164313
3.981071705534969,1.982232744180412,-0.04939272196338337,0.0022752771468929817,0.002273151425164049
3.1622776601683795,1.985901653944041,-0.04133535633405605,0.0022754392961730043,0.0022733054458776185
2.5118864315095766,1.9888330980242788,-0.03445595950483434,0.0022755727754242795,0.0022734324584134254
1.9952623149688788,1.991143756042798,-0.028606628335652584,0.0022756806103500634,0.002273535215306835
1.584893192461111,1.9929367976716363,-0.023665643580082506,0.002275766020830158,0.0022736166984171097
1.2589254117941662,1.994308677386834,-0.019529146874094027,0.0022758325334090567,0.0022736802153121563
1.0,1.9953507274868103,-0.01610283164067064,0.0022758838844449234,0.002273729297810763
0.7943282347242805,1.996146810653899,-0.01329612316877527,0.0022759237618769214,0.002273767447886315
0.6309573444801929,1.9967694353671603,-0.011020017806078931,0.0022759554985636466,0.0022737978386485895
0.5011872336272715,1.997276561973735,-0.009188081204952332,0.0022759818260362904,0.0022738230744027577
0.3981071705534969,1.9977102662343835,-0.007719290860376889,0.0022760047456335457,0.0022738450642202017
0.31622776601683794,1.9980975761369517,-0.00654143453281317,0.0022760255316582956,0.0022738650229842793
0.2511886431509577,1.9984533161918605,-0.005593907728150858,0.002276044856231212,0.002273883589945676
0.1995262314968879,1.9987842556895978,-0.004828931423111873,0.0022760629955591006,0.0022739010259961757
0.1584893192461111,1.9990933844986036,-0.004210787344754136,0.002276080050582906,0.0022739174251078555
0.12589254117941662,1.9993831942211384,-0.0037134926019288745,0.002276096117805828,0.0022739328781018033
0.1,1.9996574599104053,-0.0033178549257626678,0.0022761113806129365,0.002273947560115919
0.07943282347242805,1.9999217300232206,-0.0030087562963369533,0.0022761261313719687,0.002273961751613616
0.0630957344480193,2.000183058745993,-0.0027730185624731635,0.0022761407530937023,0.002273975820573848
0.05011872336272714,2.00044937124073,-0.002597767858944642,0.0022761556816685655,0.0022739901860457253
0.039810717055349686,2.000728507197135,-0.002469117653077292,0.002276171350647873,0.0022740052649346506
0.031622776601683784,2.001026755163254,-0.0023712215443366428,0.0022761881077506337,0.0022740213915951393
0.02511886431509577,2.001346780738895,-0.002286131156409398,0.0022762060976204397,0.002274038704961241
0.019952623149688792,2.0016853650764745,-0.0021951194102591827,0.0022762251343978637,0.0022740570259038753
0.01584893192461111,2.002032096865593,-0.0020817599366752793,0.002276244628520661,0.002274075786813025
0.01258925411794166,2.0023704092335,-0.0019359461718248463,0.0022762636458006106,0.0022740940885054325
0.01,2.002681437402446,-0.0017568707508381534,0.002276281124916972,0.0022741109095752643
