freq,Zreal,Zimag,sigma_re,sigma_im
1000000.0,1.0029096759832798,-0.0018678040304119616,0.0018365935501336499,0.001723697773183402
794328.2347242822,1.0032899511717606,-0.0025335080659360464,0.0018372461902865476,0.0017243050804570726
630957.344480193,1.003755107929602,-0.0031798316765839366,0.0018380445292138364,0.0017250479812385543
501187.2336272725,1.0043010671998038,-0.0038053378174571248,0.0018389815778114933,0.0017259199667927284
398107.17055349686,1.0049189964807215,-0.004411886708599711,0.001840042189934352,0.0017269069451298867
316227.7660168379,1.0055978347520522,-0.005006772291705735,0.0018412073945872588,0.0017279912746706843
251188.6431509582,1.0063271421208733,-0.005603507652844709,0.001842459286258613,0.001729156316907691
199526.2314968879,1.0070996294681787,-0.006221376493387321,0.0018437853671939353,0.0017303904784296985
158489.3192461114,1.007912983318435,-0.0068841867761789705,0.001845181681179154,0.0017316901281933218
125892.5411794166,1.008770858938207,-0.007618883131279916,0.001846654520637259,0.001733061188114931
100000.0,1.009683127730892,-0.008453813259527135,0.0018482208543704364,0.001734519533877772
79432.82347242821,1.0106656143568873,-0.009417761014256615,0.0018499078800146384,0.0017360905837231573
63095.7344480193,1.011739622238271,-0.01053918315609664,0.0018517522138056896,0.0017378085513296002
50118.72336272724,1.012931506987053,-0.011845688861494102,0.0018537991634253984,0.0017397157773331178
39810.71705534969,1.0142724260666447,-0.01336415356533628,0.0018561023047246573,0.0017418623459455297
31622.776601683792,1.0157982134245074,-0.015120151762398223,0.0018587232744443482,0.0017443059014042692
25118.864315095827,1.017549163478707,-0.01713758370992759,0.0018617314092413248,0.0017471113215715992
19952.623149688792,1.0195694202768382,-0.019437551696391976,0.001865202708344617,0.0017503497579733466
15848.93192461114,1.0219056959466124,-0.022037770326474065,0.001869217645840286,0.0017540966038686152
12589.254117941662,1.0246052021620726,-0.02495228833936383,0.0018738576314615016,0.0017584282022852177
10000.0,1.0277129538570975,-0.0281923253320708,0.0018792003916988285,0.0017634175521038737
7943.282347242814,1.0312689480947688,-0.031768699901622746,0.001885315133358189,0.0017691298227902727
6309.57344480193,1.0353060518250716,-0.03569613355880703,0.0018922589213148924,0.0017756190223830776
5011.8723362727205,1.039849641047165,-0.039999260304999076,0.0019000760638812335,0.0017829275013271566
3981.0717055349687,1.0449200034282968,-0.044719593019586557,0.0019088022514008858,0.0017910899276571525
3162.2776601683795,1.0505381618553928,-0.049922113946804646,0.0019184745894039225,0.0018001427993359844
2511.8864315095802,1.0567350958415787,-0.05569975915011735,0.0019291475016133938,0.0018101394632042524
1995.2623149688789,1.0635634446313798,-0.062174037463621185,0.0019409129430387568,0.001821169168023916
1584.8931924611124,1.071109878947654,-0.06949046422579508,0.0019539218167476126,0.0018333772250792187
1258.9254117941662,1.0795056597036985,-0.07780838214423422,0.001968402328910001,0.0018469822553834217
1000.0,1.0889326584508574,-0.08728598780015712,0.001984670585149608,0.0018622860865143496
794.3282347242813,1.0996224839397637,-0.09806284763128013,0.002003129352710813,0.0018796724379937222
630.957344480193,1.1118475853334744,-0.11024363026377278,0.0020242530095891157,0.0018995925143448242
501.187233627272,1.125905493785424,-0.12388766954641928,0.0020485606391712433,0.0019225393657606232
398.10717055349687,1.1421005360240968,-0.13900843085444364,0.0020765847015088747,0.0019490180781113516
316.227766016838,1.1607304473478022,-0.15558415135561665,0.002108848081096763,0.001979523921402879
251.18864315095797,1.182086675879377,-0.1735757850329317,0.0021458647321908665,0.0020145427622051152
199.5262314968879,1.2064751703833039,-0.1929420363829692,0.002188175772398212,0.002054584602636596
158.48931924611125,1.234258288009324,-0.21363575607089103,0.002236422287335976,0.0021002507469680843
125.89254117941664,1.2659084056086582,-0.23556356059203704,0.0022914386725692436,0.00215231833465571
100.0,1.3020506673013232,-0.2584933957872506,0.0023543273610715553,0.0022118043510588135
79.43282347242804,1.3434573552479425,-0.2819061137058649,0.002426449482254112,0.0022799473275093205
63.09573444801929,1.3909442112086763,-0.30481239170940266,0.002509244349739174,0.002358027011137278
50.11872336272725,1.4451233347863095,-0.3255993518091025,0.002603797623814116,0.0024469531914425467
39.81071705534969,1.5060112368469547,-0.3420205758390207,0.00271015439390253,0.002546631040649991
31.622776601683796,1.572586983352665,-0.3514578603358377,0.002826542261622848,0.002655267278760536
25.118864315095767,1.6425099645794903,-0.35150695316935465,0.0029488716388401536,0.0027689571910859087
19.95262314968879,1.712246486338854,-0.3407577532642131,0.003070952243178537,0.0028819376495550814
15.848931924611108,1.7777207087788196,-0.3194382332889235,0.003185631740432906,0.0029876627800335676
12.589254117941664,1.8353089080889893,-0.28954726993748303,0.0032865411536964883,0.003080391355056869
10.0,1.8827327583997198,-0.2543348783031093,0.0033696667461490647,0.003156580017939565
7.943282347242805,1.9194285517853298,-0.2173738168761915,0.0034340031080489736,0.003215431235706934
6.30957344480193,1.9462943473761385,-0.18168858998187218,0.0034811129018718755,0.003258462017750071
5.011872336272715,1.965069993650614,-0.14929031269210835,0.003514039967920409,0.0032885061078121902
3.981071705534969,1.9777115115318904,-0.12115852414272019,0.003536210944128372,0.0033087195620421592
3.1622776601683795,1.9859800634656262,-0.0974891856658338,0.003550712932043485,0.0033219323539953665
2.5118864315095766,1.991270716051989,-0.07800250126082872,0.0035599920775627367,0.003330381429063485
1.9952623149688788,1.9946017619292218,-0.06219226264515411,0.0035658342014500497,0.0033356976696174785
1.584893192461111,1.9966768628729394,-0.049486869796160245,0.0035694734722397695,0.0033390072637926598
1.2589254117941662,1.9979637465526718,-0.03933703780997483,0.003571730293313219,0.003341058422512518
1.0,1.9987640270829976,-0.03125550284486944,0.0035731337096921263,0.0033423333848446772
0.7943282347242805,1.9992670117400664,-0.024829488439887703,0.003574015766583369,0.003343134610192671
0.6309573444801929,1.9995883242177865,-0.01971936054813228,0.0035745792529050763,0.0033436466212336396
0.5011872336272715,1.9997965443195502,-0.015651137573841373,0.003574944431851636,0.0033439786633411624
0.3981071705534969,1.999931116773971,-0.012406902283668673,0.0035751804589964965,0.003344193393793699
0.31622776601683794,2.000014149025088,-0.009815120704034445,0.0035753260811144886,0.0033443257899989772
0.2511886431509577,2.0000580311683107,-0.007741776241228058,0.003575403005756561,0.0033443953661852913
0.1995262314968879,2.0000702431023045,-0.006082648901267515,0.0035754243357695517,0.003344413880782531
0.1584893192461111,2.000056277323798,-0.004756776816007894,0.0035753996973066017,0.0033443900194104793
0.12589254117941662,2.0000212835903697,-0.0037010126981918863,0.0035753381247553375,0.0033443320232165886
0.1,1.9999708221247334,-0.0028655627755196597,0.0035752493808942163,0.003344248881111109
0.07943282347242805,1.9999109838747406,-0.002210417015605598,0.0035751441658305435,0.003344150500030197
0.0630957344480193,1.9998480787727648,-0.0017026062365758303,0.003575033567409903,0.003344047176625613
0.05011872336272714,1.9997880752908097,-0.0013142281758442519,0.0035749280749787565,0.003343948667179926
0.039810717055349686,1.9997359662622511,-0.0010211668948220385,0.0035748364638802095,0.00334386314038183
0.031622776601683784,1.9996952182474188,-0.0008023994542315236,0.0035747648270409277,0.003343796269519331
0.02511886431509577,1.9996674311110931,-0.0006397536190763005,0.003574715976248042,0.003343750671026537
0.019952623149688792,1.9996522940820016,-0.0005179546039967588,0.0035746893647270526,0.0033437258303984476
0.01584893192461111,1.9996478726943263,-0.00042477558128023815,0.0035746815914642375,0.0033437185715898517
0.01258925411794166,1.9996511895258169,-0.00035111201350429707,0.003574687422058572,0.003343724008847095
0.01,1.9996589706223324,-0.00029076159276980693,0.0035747011008748822,0.003343736770654342
