freq,Zreal,Zimag,sigma_re,sigma_im
1000000.0,0.9995529727715665,-0.0008035112646632122,0.004636757202206538,0.0008718205597647125
794328.2347242822,0.9996864218076118,-0.001095398332132095,0.004637354392151264,0.0008718272954462123
630957.344480193,0.9998279830887699,-0.001388867353029055,0.004637987887996821,0.0008718361212725859
501187.2336272725,0.9999705391722621,-0.0017006597269671948,0.00463862583915929,0.0008718477382208138
398107.17055349686,1.0001112677190866,-0.002053353127031101,0.004639255615590321,0.0008718636500556342
316227.7660168379,1.0002542246767654,-0.0024729713434812972,0.004639895368374957,0.0008718864166303507
251188.6431509582,1.0004106704584181,-0.002985581027009326,0.004640595490250549,0.0008719199014318958
199526.2314968879,1.0005971628030004,-0.003614679316783051,0.004641430081840029,0.0008719695428305211
158489.3192461114,1.0008323723867492,-0.004380435176229254,0.004642482702116983,0.0008720426926970015
125892.5411794166,1.00113391916642,-0.0053010770446681845,0.0046438322117274495,0.0008721491367836843
100000.0,1.0015162950985108,-0.006395974927564425,0.004645543477944683,0.0008723020091835565
79432.82347242821,1.001990386874127,-0.007689512977400422,0.004647665239776514,0.000872519378854711
63095.7344480193,1.002564550509665,-0.009215007362192515,0.0046502349179265556,0.0008728268430328364
50118.72336272724,1.0032468448654934,-0.011018120147495918,0.004653288611859658,0.000873261506420124
39810.71705534969,1.0040479752391382,-0.013159584436373505,0.004656874276328221,0.0008738778380966639
31622.776601683792,1.0049846526036692,-0.0157174648174339,0.004661066761134817,0.0008747561501115356
25118.864315095827,1.0060832800090889,-0.018788914201458673,0.00466598432003914,0.0008760146234116094
19952.623149688792,1.0073839919633527,-0.02249151331907566,0.004671806707109129,0.0008778260628018804
15848.93192461114,1.008945039805631,-0.026964073424956415,0.004678794833466233,0.0008804406134623637
12589.254117941662,1.0108473846886583,-0.03236675755481734,0.004687311371554791,0.000884215460942869
10000.0,1.013199244705735,-0.03888048689367408,0.0046978411821945705,0.000889651901757191
7943.282347242814,1.0161403632328874,-0.04670583150854393,0.004711010535875333,0.00089743898350008
6309.57344480193,1.0198459947831602,-0.0560617890096957,0.004727605131336386,0.0009085010282644721
5011.8723362727205,1.0245310488062211,-0.06718491624088936,0.004748588909919587,0.0009240437182127764
3981.0717055349687,1.0304554295768396,-0.08032904769846641,0.004775128350655754,0.0009455900900624652
3162.2776601683795,1.0379322246085019,-0.09576514685488619,0.004808629698806655,0.0009749939426905454
2511.8864315095802,1.0473407768652212,-0.11377956419687721,0.004850798324232593,0.001014414162904917
1995.2623149688789,1.0591464109228055,-0.13466705881688684,0.004903728263943362,0.0010662297382910562
1584.8931924611124,1.0739270387516233,-0.15871253991671588,0.004970023140404373,0.0011328721627372014
1258.9254117941662,1.0924032299643183,-0.1861532447725722,0.005052933367015161,0.0012165504212107022
1000.0,1.1154618563939906,-0.21711254090371146,0.00515646545326956,0.0013188472132609614
794.3282347242813,1.144154333374558,-0.2515006202014164,0.005285378118956575,0.0014401834506145553
630.957344480193,1.1796418720848088,-0.2888899069935337,0.005444940464375065,0.0015791987275701538
501.187233627272,1.2230600931406985,-0.32839581149788677,0.0056403257810965215,0.0017321902341939273
398.10717055349687,1.2752951775854964,-0.36861983498490514,0.005875602332736921,0.0018928656612496612
316.227766016838,1.3367079974210703,-0.40772281766127727,0.006152481692043885,0.0020527111598884185
251.18864315095797,1.406895905125378,-0.4436688580275613,0.0064692281415488296,0.0022021491667391715
199.5262314968879,1.4846092782607287,-0.4746106748491233,0.006820262012921081,0.002332342113946586
158.48931924611125,1.5679086106853868,-0.4993022658925193,0.007196853270178212,0.0024371138522508115
125.89254117941664,1.6545539843538863,-0.5173757907689553,0.007588876670679926,0.002514244986749707
100.0,1.7425035787987326,-0.529352255433899,0.007987073106624281,0.002565554833522931
79.43282347242804,1.830334155709944,-0.5363674996869243,0.008384966369418994,0.0025956949768824664
63.09573444801929,1.9174308576517225,-0.5397202526762176,0.008779736886059375,0.0026101444747783625
50.11872336272725,2.0038985467276653,-0.5404106593567777,0.009171830173136851,0.0026131663799146133
39.81071705534969,2.0902506540911885,-0.5388170360809679,0.009563551112697155,0.002606381196886233
31.622776601683796,2.17698888097836,-0.5345938528803302,0.00995715803430089,0.002588317397513926
25.118864315095767,2.2642003710354057,-0.5268060766378098,0.01035303235521109,0.0025550018297058287
19.95262314968879,2.351287145809795,-0.514257255702804,0.010748446559914464,0.0025014062052197065
15.848931924611108,2.436911831435567,-0.495917745965769,0.011137313962490698,0.002423342540093484
12.589254117941664,2.51918606866278,-0.4713208156815394,0.011511041902135059,0.0023192209208070117
10.0,2.5960450903581704,-0.4407931491324899,0.011860232793351941,0.002191066674119167
7.943282347242805,2.6656775768169023,-0.40544440691158834,0.012176638446620655,0.002044448221937621
6.30957344480193,2.7268628388528073,-0.3669388742244635,0.012454694513283624,0.0018874091054360063
5.011872336272715,2.7791213629027087,-0.32715370694089885,0.012692206826612417,0.001728869194280521
3.981071705534969,2.822671512615717,-0.28784910151439824,0.012890156014743994,0.0015770611954404857
3.1622776601683795,2.858253175911539,-0.2504394544798498,0.013051896403360219,0.0014384137593126377
2.5118864315095766,2.8869032477651144,-0.21589522043304094,0.01318213524890933,0.0013170338938458146
1.9952623149688788,2.909753216190579,-0.18475533583339368,0.013286012058825451,0.0012147236993189754
1.584893192461111,2.927885790868613,-0.15720584864380743,0.013368446217365954,0.0011313566441824101
1.2589254117941662,2.9422557144176427,-0.13318096587722414,0.013433776456741393,0.00106542675033892
1.0,2.9536610146262805,-0.11245706925009306,0.013485629766185229,0.0010146219663514922
0.7943282347242805,2.9627456951209683,-0.09472640813110719,0.013526933349674475,0.0009763212968060729
0.6309573444801929,2.9700178464329565,-0.07964851353400065,0.01355999678496032,0.0009479611320536717
0.5011872336272715,2.975872710659549,-0.06688288762638683,0.013586616770206535,0.0009272581204765098
0.3981071705534969,2.980615112637521,-0.05610799793563082,0.013608179034398423,0.0009123083757532909
0.31622776601683794,2.9844789148527395,-0.04703111179341162,0.01362574674416204,0.0009015993879860228
0.2511886431509577,2.9876429515730543,-0.03939239760848014,0.013640132920821835,0.000893971928135956
0.1995262314968879,2.9902437383088065,-0.032965630171114146,0.01365195820726786,0.0008885608400657323
0.1584893192461111,2.9923855485554007,-0.02755697006238097,0.013661696671837965,0.0008847328980625395
0.12589254117941662,2.994148460891884,-0.023002665878823287,0.013669712388567921,0.0008820310289775494
0.1,2.99559485010305,-0.019166100087915864,0.013676288945771994,0.0008801283543392038
0.07943282347242805,2.9967746104269457,-0.015934429781372335,0.01368165319179847,0.0008787923414776222
0.0630957344480193,2.9977292204959953,-0.013214887208730316,0.01368599371541853,0.0008778578503107743
0.05011872336272714,2.9984946433177138,-0.010930937444879447,0.013689474030104877,0.0008772074659546556
0.039810717055349686,2.9991030417098994,-0.009018570928762487,0.01369224037282356,0.0008767574888777934
0.031622776601683784,2.9995833913142205,-0.007423062241241844,0.013694424490540412,0.0008764481319476425
0.02511886431509577,2.9999612577563646,-0.006096473544957796,0.013696142626382248,0.0008762367148846802
0.019952623149688792,3.0002581939644655,-0.0049963325842158155,0.013697492778840567,0.00087609294720507
0.01584893192461111,3.0004913010251455,-0.004085214461515212,0.013698552704693171,0.0008759955506648991
0.01258925411794166,3.0006733863744115,-0.003330914618707671,0.013699380638075227,0.0008759297714179051
0.01,3.0008138295893154,-0.002706686571584166,0.013700019227054305,0.0008758855041066352
