freq,Zreal,Zimag,sigma_re,sigma_im
1000000.0,1.0008989213523913,-0.00020814485214220468,0.02518952288270363,0.025187864342776214
794328.2347242822,1.0009996283087015,-0.0005384101341525606,0.02518952324643412,0.025187864373158078
630957.344480193,1.001129794218867,-0.0008602791440767115,0.02518952371664158,0.02518786441267324
501187.2336272725,1.0012931804173593,-0.001179065679734704,0.025189524306954886,0.025187864462436513
398107.17055349686,1.0014931612203797,-0.00149868472487772,0.0251895250296262,0.025187864523466778
316227.7660168379,1.0017328391922968,-0.0018219852652831075,0.025189525895950016,0.02518786459671531
251188.6431509582,1.0020151304122922,-0.002150932324468668,0.025189526916574233,0.025187864683086765
199526.2314968879,1.002342758135862,-0.00248673738128204,0.025189528101480386,0.025187864783433826
158489.3192461114,1.0027181446989364,-0.002829849210135379,0.02518952945959548,0.02518786489852093
125892.5411794166,1.0031432269346323,-0.003180106627726379,0.02518953099812592,0.025187865028966652
100000.0,1.0036192373401969,-0.003536927054716774,0.02518953272176512,0.02518786517517708
79432.82347242821,1.0041464978833101,-0.003899602591953088,0.025189534631943414,0.025187865337285464
63095.7344480193,1.004724271471533,-0.004267712523397571,0.025189536726282973,0.025187865515112783
50118.72336272724,1.00535071006528,-0.004641610930010132,0.025189538998399177,0.025187865708161485
39810.71705534969,1.0060229275444599,-0.005022983289517085,0.02518954143815178,0.025187865915651572
31622.776601683792,1.0067372083842145,-0.005415440931595851,0.02518954403238838,0.02518786613660306
25118.864315095827,1.0074893404247371,-0.00582506008062098,0.025189546766140734,0.025187866369960562
19952.623149688792,1.0082750355090973,-0.006260879763139472,0.025189549624145678,0.025187866614750858
15848.93192461114,1.0090903828213869,-0.006735337744332756,0.025189552592493093,0.025187866870258903
12589.254117941662,1.009932274434502,-0.0072646742562424965,0.02518955566018259,0.02518786713620908
10000.0,1.0107987557925926,-0.007869368582013096,0.02518955882041766,0.02518786741294586
7943.282347242814,1.0116892846415908,-0.00857470157010467,0.025189562071577222,0.025187867701622346
6309.57344480193,1.012604923355166,-0.009411547309863204,0.02518956541795602,0.025187868004424484
5011.8723362727205,1.0135485313918209,-0.01041749319267917,0.025189568870519777,0.02518786832488127
3981.0717055349687,1.014525057282081,-0.011638362071177482,0.025189572448043877,0.02518786866833572
3162.2776601683795,1.015542048519571,-0.013130182213072746,0.02518957617907952,0.025187869042679157
2511.8864315095802,1.016610505872024,-0.01496162920000492,0.025189580105229262,0.02518786945948704
1995.2623149688789,1.0177462164227296,-0.017216953708519743,0.025189584286253695,0.025187869935746076
1584.8931924611124,1.0189717235448401,-0.019999412753049235,0.025189588807636058,0.025187870496441778
1258.9254117941662,1.0203191518707597,-0.023435230486996843,0.025189593791478424,0.02518787117839837
1000.0,1.0218342218204992,-0.02767810729655487,0.025189599412076887,0.025187872035945972
794.3282347242813,1.0235819802448798,-0.03291423634663002,0.02518960591830833,0.025187873149249175
630.957344480193,1.0256550542105383,-0.03936761610549723,0.02518961366613465,0.02518787463647052
501.187233627272,1.0281856001708514,-0.04730507029157999,0.025189623166129833,0.02518787667132523
398.10717055349687,1.0313625187057294,-0.05703964984414445,0.02518963515286645,0.02518787950786841
316.227766016838,1.0354557567679774,-0.06892976850005066,0.02518965068477032,0.025187883514151545
251.18864315095797,1.0408491603918564,-0.08336926211577397,0.025189671283223195,0.025187889214793674
199.5262314968879,1.0480813908426228,-0.10076053649610829,0.025189699114976278,0.025187897337810933
158.48931924611125,1.0578892982824044,-0.12145997813510075,0.025189737206585818,0.02518790885074162
125.89254117941664,1.0712384852383339,-0.14568486956900906,0.025189789647343364,0.025187924953688722
100.0,1.0893132376842394,-0.17337982088254028,0.025189861689737945,0.025187946977243112
79.43282347242804,1.113431343680488,-0.20406287302172416,0.025189959617199494,0.025187976130061213
63.09573444801929,1.144863088423748,-0.23670093794094657,0.02519009026178269,0.025188013083620172
50.11872336272725,1.1845729948901258,-0.26967900903230163,0.02519026014280335,0.02518805748044373
39.81071705534969,1.232946990826958,-0.30090686297094016,0.025190474317893122,0.025188107560179064
31.622776601683796,1.2895846900209527,-0.32805951293587887,0.025190735123242793,0.02518816012952717
25.118864315095767,1.3532190835067808,-0.3489045845197565,0.025191041032345644,0.02518821100732852
19.95262314968879,1.4217934551342986,-0.3616478021066962,0.025191385927553264,0.025188255883733395
15.848931924611108,1.4926913582414825,-0.365221057692722,0.02519175911856415,0.025188291327712293
12.589254117941664,1.563078357490064,-0.3594434020220363,0.02519214633050545,0.025188315569500994
10.0,1.6302787648598798,-0.34501320247123146,0.025192531569925805,0.02518832876012582
7.943282347242805,1.6920970316066013,-0.3233393723219208,0.025192899408415324,0.025188332650141535
6.30957344480193,1.7470159145405268,-0.29626834139514213,0.025193237047188184,0.02518832988832664
5.011872336272715,1.7942498756668503,-0.2657847008554861,0.025193535649652172,0.025188323258277724
3.981071705534969,1.833675206237753,-0.23375221531755694,0.02519379074014974,0.02518831510903703
3.1622776601683795,1.8656811050175137,-0.20173373689106183,0.02519400177468412,0.025188307081951893
2.5118864315095766,1.8909890795276874,-0.17090050934977136,0.025194171176794965,0.025188300098165996
1.9952623149688788,1.9104797976650338,-0.1420210192615869,0.02519430318038988,0.025188294503220184
1.584893192461111,1.9250533967435506,-0.11550767876461396,0.025194402764255292,0.025188290263475518
1.2589254117941662,1.935534908835456,-0.09149542380276386,0.025194474848794713,0.025188287143250887
1.0,1.9426238666654623,-0.06992885222945586,0.02519452380463991,0.025188284831832
0.7943282347242805,1.9468790065463852,-0.05064162246083351,0.025194553234765844,0.025188283018614657
0.6309573444801929,1.9487262608462628,-0.03342006790120726,0.025194565952248175,0.02518828142860687
0.5011872336272715,1.948479646644032,-0.018049410238836522,0.02519456407591563,0.025188279833234187
0.3981071705534969,1.9463678555440214,-0.004344419722694344,0.0251945491857536,0.0251882780486448
0.31622776601683794,1.9425623928007596,0.007832682643567755,0.02519452250172788,0.02518827592968012
0.2511886431509577,1.9372050663321558,0.018564751586425454,0.02519448506483962,0.025188273364293298
0.1995262314968879,1.930433380760674,0.027881177452825208,0.025194437905973276,0.02518827027084371
0.1584893192461111,1.9224023019675185,0.035767285114786496,0.025194382188805434,0.025188266599072893
0.12589254117941662,1.9133004646413916,0.04218052112610527,0.02519431931169406,0.025188262334272224
0.1,1.9033587543579311,0.04707149086218046,0.02519425095410423,0.025188257502977485
0.07943282347242805,1.892849733389466,0.05040682736746452,0.025194179058583618,0.025188252177584605
0.0630957344480193,1.8820777328924576,0.0521900692303321,0.025194105750037644,0.025188246476961954
0.05011872336272714,1.871361307975057,0.05247678924972127,0.025194033207381554,0.025188240560821726
0.039810717055349686,1.8610114377947633,0.05138142934047939,0.025193963513314398,0.025188234617291395
0.031622776601683784,1.851309552188161,0.049075335205602685,0.025193898510775362,0.02518822884517786
0.02511886431509577,1.8424888124088254,0.04577748199109892,0.025193839687986854,0.025188223433910018
0.019952623149688792,1.8347204561863715,0.04174039775416634,0.025193788101484028,0.025188218544468406
0.01584893192461111,1.8281054176071532,0.03723354620276301,0.02519374433527859,0.02518821429394755
0.01258925411794166,1.8226708660649167,0.032525039138211115,0.02519370849091549,0.025188210745474785
0.01,1.818372133076387,0.02786216478262038,0.02519368020950494,0.02518820790487247
