tau,gamma
1e-07,0.0005118905475250958
1.1097524964120721e-07,0.0007662109054929309
1.2315506032928263e-07,0.0010660993971078631
1.3667163564620074e-07,0.0013834554436968373
1.5167168884709241e-07,0.0016812854034061648
1.6831803533309585e-07,0.0019232414472838551
1.867913599020781e-07,0.0020836387804389323
2.0729217795953698e-07,0.0021537039872796962
2.300430119772917e-07,0.002141744766496498
2.5529080682395163e-07,0.002068001013827258
2.833096101839324e-07,0.001957173958331453
3.1440354715915e-07,0.001831895708776333
3.489101213406774e-07,0.0017090320026942507
3.872038781812557e-07,0.001598929306182312
4.2970047043208437e-07,0.0015065754157359567
4.768611697714474e-07,0.001433431852873161
5.291978735958437e-07,0.0013790872965422764
5.872786613189477e-07,0.0013423964851667302
6.517339604882421e-07,0.0013221193484435332
7.232633896483533e-07,0.0013172109874412068
8.026433522257174e-07,0.0013269115286810356
8.907354638610439e-07,0.0013507345729477482
9.884959046625586e-07,0.0013884051860003186
1.096985797892384e-06,0.0014397688865184087
1.217382727739662e-06,0.0015046800644738624
1.3509935211980278e-06,0.0015828757186522504
1.499268432786047e-06,0.0016738434111541957
1.6638168860761274e-06,0.00177669755586997
1.8464249428955464e-06,0.0018900830236361639
2.049074689815846e-06,0.002012127282731679
2.2739657523579273e-06,0.002140460062958557
2.523539170434766e-06,0.0022723120083661427
2.800503894183631e-06,0.002404691721959785
3.107866187782014e-06,0.002534626491147571
3.4489622604057595e-06,0.002659439510836299
3.827494478516315e-06,0.00277702936374638
4.247571552536894e-06,0.002886118373477406
4.713753134116729e-06,0.0029864454541019465
5.2310993080562585e-06,0.003078894066568296
5.805225516094895e-06,0.0031655630534344462
6.44236350872137e-06,0.0032498034031271266
7.149428986597577e-06,0.0033362544239667396
7.934096665797492e-06,0.003430917197963238
8.804883581643465e-06,0.003541301861302215
9.771241535346501e-06,0.003676678943427306
1.0843659686896109e-05,0.0038484532842228865
1.2033778407775906e-05,0.004070659144527213
1.3354515629298974e-05,0.0043605415721103
1.48202070579886e-05,0.004739135166660984
1.6446761779946626e-05,0.005231672623822559
1.8251834943190462e-05,0.005867554914609065
2.0255019392306664e-05,0.006679509178011162
2.2478058335487252e-05,0.007701483685348916
2.4945081352303165e-05,0.00896483524390568
2.7682866303920665e-05,0.010492524961823685
3.072112998861759e-05,0.01229143791746577
3.409285069746814e-05,0.014343657549872938
3.783462617131933e-05,0.016598565342648995
4.1987070844439056e-05,0.018968825885019053
4.659525668664687e-05,0.02133416837555722
5.170920242896755e-05,0.02355658491793611
5.7384416483024044e-05,0.025508332471163832
6.368249944718586e-05,0.02710981905081577
7.067181273927492e-05,0.028369282792461467
7.842822061337681e-05,0.029412642101184085
8.703591361485166e-05,0.030492577867342576
9.658832241158708e-05,0.031971475978668805
0.00010718913192051276,0.03428094067651558
0.00011895340673703195,0.037866930591819
0.0001320088400831418,0.04313115034779234
0.00014649713983072864,0.050376967644098505
0.0001625755666443795,0.059765874038147926
0.00018041864093920718,0.07129181452647051
0.00020022003718155845,0.0847845065606933
0.0002221946860939524,0.0999534315487132
0.0002465811075822604,0.11647567549023637
0.0002736439997074672,0.13411319382010362
0.00030367711180354605,0.15282633589770042
0.00033700643292719284,0.17284214142878596
0.0003739937302478798,0.19464459302766005
0.0004150404757850477,0.21887523503732303
0.00046059220411451084,0.24615367446898875
0.0005111433483440171,0.2768389401157659
0.0005672426068491978,0.3107587887106511
0.0006294988990221888,0.3469502510450888
0.0006985879746785249,0.38348844712171587
0.0007752597488629464,0.4175115218026087
0.000860346441668451,0.4455340177128837
0.0009547716114208065,0.464050336604211
0.001059560179277617,0.4702913608348888
0.0011758495540521582,0.46289236665257294
0.0013049019780144017,0.442237176131263
0.001448118227674533,0.4103694798861639
0.0016070528182616384,0.3705330431396678
0.0017834308769319094,0.32652068023076325
0.0019791668678535573,0.28202969686806534
0.002196385372416547,0.2401621503453922
0.002437444150122222,0.20312811443608955
0.002704959730463137,0.17214936942098444
0.0030018358135755923,0.14752702698312312
0.003331294787934677,0.1288203582383662
0.0036969127071950323,0.1150794018965583
0.00410265810582719,0.10508113630770265
0.004552935074866948,0.09753667763813845
0.00505263106533568,0.09125696122182761
0.005607169938205458,0.08527649056568593
0.006222570836730231,0.07893522152119284
0.006905513520162331,0.07191318957067108
0.007663410868007463,0.06421106142706291
0.008504489341802686,0.056078059764380524
0.009437878277775391,0.04790345921842156
0.010473708979594508,0.04009986507843178
0.011623224686798541,0.03300786237786999
0.01289890261253308,0.026841378100534708
0.014314589375234785,0.02167710543785991
0.015885651294280528,0.01747766418352966
0.01762914118095948,0.014132014020313697
0.01956398343517065,0.011498247106516592
0.021711179456945052,0.00943982036834664
0.02409403560239527,0.007852139051031886
0.026738416158399492,0.0066790924290322665
0.029673024081888724,0.005918105306482969
0.032929712550971546,0.005609689288873929
0.036543830709572546,0.005807460717600363
0.040554607358408275,0.006530726387758286
0.04500557675700498,0.007713459005281829
0.0499450511585514,0.009173957364549916
0.05542664520663107,0.010628620623962725
0.06150985788580504,0.011755910557487127
0.06826071834272393,0.012289660860073269
0.0757525025877192,0.01210135616777762
0.08406652885618333,0.011233572288099215
0.09329304026284696,0.009871406107645279
0.10353218432956637,0.008269688911305778
0.11489510001873086,0.006671794688332787
0.1275051240713013,0.00525239751982625
0.1414991297434576,0.004098040790828626
0.15702901247293774,0.003219713304212632
0.17426333860096507,0.002581206499845234
0.19338917504552322,0.002127602797678779
0.21461411978584058,0.0018050853298066688
0.23816855519761607,0.001570478781173974
0.2643081486974108,0.001393191303141951
0.29331662783900486,0.0012532457941447687
0.32550885998350565,0.0011382086538408909
0.36123426997094304,0.0010404774781247069
0.40088063288984643,0.0009553707793550555
0.4448782831127585,0.0008799464889051969
0.4937047852839004,0.0008123231068173037
0.5478901179593945,0.0007512983181918806
0.6080224261649427,0.0006961278764934335
0.67475440531107,0.0006463870766810363
0.748810385759003,0.0006018754821762928
0.8309941949353403,0.0005625465422591547
0.9221978823334341,0.0005284539764516469
1.0234114021054528,0.0004997112874675505
1.135733358343105,0.00047646243995909946
1.2603829296797273,0.00045886219800213437
1.3987131026472386,0.00044706468644175484
1.552225357427048,0.00044121885743026573
1.7225859653987874,0.0004414698919372235
1.9116440753857036,0.00044796618437148114
2.121451784910632,0.00046087239102513434
2.35428641432242,0.0004803899606309996
2.612675225563332,0.0005067874643282306
2.8994228538828812,0.0005404437075170372
3.2176417502507353,0.0005819066980680217
3.5707859649004625,0.0006319703237491649
3.9626886387014784,0.0006917663470866378
4.397603609302721,0.0007628584361788337
4.880251583654434,0.0008473011096205369
5.415871378079476,0.0009475822432675162
6.010276782070388,0.0010663026790645135
6.669919663030129,0.0012053848949720098
7.401959996915652,0.001364614786757786
8.214343584919439,0.0015395177967546987
9.115888299750837,0.0017190338557600674
10.11637979766207,0.0018840903381348217
11.226677735108158,0.002008590743775424
12.458833642950081,0.0020639663069764312
13.826221737646593,0.0020269628133152084
15.343684089300131,0.0018882306831879692
17.02769172225898,0.0016578664292587288
18.896523396912116,0.0013646591548047912
20.970464013232306,0.0010485797900295494
23.27202478960412,0.0007494936962802623
25.826187606826746,0.000496947309931863
28.66067616948256,0.0003049703870454956
31.80625692794119,0.0001729150698919299
35.297073027306574,9.045087878666707e-05
39.17101490809261,4.3601027233389424e-05
43.47013158125035,1.9350001885359757e-05
48.241087041653735,7.900224262818028e-06
53.535666774107185,2.965565530921715e-06
59.411339849650396,1.0229878325165327e-06
65.93188271333541,3.2415539841990493e-07
73.16807143427206,9.432201883054543e-08
81.19844993184009,2.5196092980975143e-08
90.11018251665037,6.177574699484728e-09
100.0,1.3899178101162485e-09
