tau,gamma
1e-07,0.003720998756699092
1.1097524964120721e-07,0.005328932854518085
1.2315506032928263e-07,0.007051708596882215
1.3667163564620074e-07,0.008656847328897762
1.5167168884709241e-07,0.009917310999924748
1.6831803533309585e-07,0.010690264766886233
1.867913599020781e-07,0.010959937700157057
2.0729217795953698e-07,0.010819179684326115
2.300430119772917e-07,0.010402354167816829
2.5529080682395163e-07,0.009812900130828877
2.833096101839324e-07,0.009088897608929206
3.1440354715915e-07,0.008220303295481462
3.489101213406774e-07,0.007196154361587313
3.872038781812557e-07,0.006044771499102937
4.2970047043208437e-07,0.004842017478866522
4.768611697714474e-07,0.0036882111073581725
5.291978735958437e-07,0.0026731690650075145
5.872786613189477e-07,0.0018506178506790898
6.517339604882421e-07,0.0012319116138281606
7.232633896483533e-07,0.0007958673557939435
8.026433522257174e-07,0.0005050027632514722
8.907354638610439e-07,0.00031959961650118956
9.884959046625586e-07,0.00020583409633515397
1.096985797892384e-06,0.0001384231433441347
1.217382727739662e-06,0.00010001750875827069
1.3509935211980278e-06,7.940342997198557e-05
1.499268432786047e-06,6.968915535900792e-05
1.6638168860761274e-06,6.689912698852919e-05
1.8464249428955464e-06,6.901258930564612e-05
2.049074689815846e-06,7.536173959537104e-05
2.2739657523579273e-06,8.62937078939851e-05
2.523539170434766e-06,0.00010301180956264745
2.800503894183631e-06,0.0001275154022514076
3.107866187782014e-06,0.00016255165712130153
3.4489622604057595e-06,0.0002114823092972604
3.827494478516315e-06,0.0002779645049883916
4.247571552536894e-06,0.00036536233811850085
4.713753134116729e-06,0.0004758602422111677
5.2310993080562585e-06,0.0006093485933048855
5.805225516094895e-06,0.0007622847897484771
6.44236350872137e-06,0.0009268635974703928
7.149428986597577e-06,0.0010908996984526904
7.934096665797492e-06,0.001238767507623417
8.804883581643465e-06,0.0013535171669531092
9.771241535346501e-06,0.001419912483003187
1.0843659686896109e-05,0.0014277253826467148
1.2033778407775906e-05,0.001374352732677031
1.3354515629298974e-05,0.0012658737539503672
1.48202070579886e-05,0.0011161082187785372
1.6446761779946626e-05,0.0009439499776913176
1.8251834943190462e-05,0.0007699649799694128
2.0255019392306664e-05,0.0006136746031967835
2.2478058335487252e-05,0.0004929603563201264
2.4945081352303165e-05,0.00042667749769734583
2.7682866303920665e-05,0.0004409478646464563
3.072112998861759e-05,0.0005786601518706261
3.409285069746814e-05,0.0009102558291342966
3.783462617131933e-05,0.0015420231270573317
4.1987070844439056e-05,0.002616804697089186
4.659525668664687e-05,0.004302995561790758
5.170920242896755e-05,0.006772223024178011
5.7384416483024044e-05,0.01017288777591601
6.368249944718586e-05,0.014611352364612931
7.067181273927492e-05,0.020150074767484826
7.842822061337681e-05,0.026821962556740193
8.703591361485166e-05,0.034649065224807825
9.658832241158708e-05,0.04365055249895402
0.00010718913192051276,0.05383349911486254
0.00011895340673703195,0.06517433326497266
0.0001320088400831418,0.07760737757119152
0.00014649713983072864,0.09103189736154478
0.0001625755666443795,0.10533313169069856
0.00018041864093920718,0.12039868058228019
0.00020022003718155845,0.136113847664619
0.0002221946860939524,0.15234043263451363
0.0002465811075822604,0.16890455919719996
0.0002736439997074672,0.18561393468550294
0.00030367711180354605,0.20229123253474818
0.00033700643292719284,0.21878476499704
0.0003739937302478798,0.23493864249992397
0.0004150404757850477,0.25055522456280915
0.00046059220411451084,0.2653968440328648
0.0005111433483440171,0.27922251045060625
0.0005672426068491978,0.2918025003738827
0.0006294988990221888,0.30288128304204887
0.0006985879746785249,0.3121425305291995
0.0007752597488629464,0.31925116273107934
0.000860346441668451,0.3239587155008946
0.0009547716114208065,0.3261694522756706
0.001059560179277617,0.3259030519598494
0.0011758495540521582,0.3232142414144807
0.0013049019780144017,0.3181748132836814
0.001448118227674533,0.3109286462988152
0.0016070528182616384,0.3017275176100631
0.0017834308769319094,0.29088312974078695
0.0019791668678535573,0.27868286579303275
0.002196385372416547,0.26535771171226147
0.002437444150122222,0.25111551430011236
0.002704959730463137,0.23617463297392768
0.0030018358135755923,0.2207519178725668
0.003331294787934677,0.20503170808394283
0.0036969127071950323,0.18916446006449797
0.00410265810582719,0.17329645118776496
0.004552935074866948,0.1575905382509829
0.00505263106533568,0.1422144798628411
0.005607169938205458,0.1273158388282827
0.006222570836730231,0.11301356514306982
0.006905513520162331,0.09940988009682766
0.007663410868007463,0.08660204409317566
0.008504489341802686,0.07467898044670636
0.009437878277775391,0.06370870469092264
0.010473708979594508,0.05373148614489147
0.011623224686798541,0.04476405917588617
0.01289890261253308,0.03680754817442896
0.014314589375234785,0.029850403660327613
0.015885651294280528,0.023865757686442658
0.01762914118095948,0.018808979924526563
0.01956398343517065,0.014619745468002737
0.021711179456945052,0.011227377440600225
0.02409403560239527,0.008555412341150067
0.026738416158399492,0.006523314167992496
0.029673024081888724,0.005046750499184723
0.032929712550971546,0.004039055831542905
0.036543830709572546,0.0034148977754109152
0.040554607358408275,0.003094883536752092
0.04500557675700498,0.0030089836831575525
0.0499450511585514,0.0030975249883123668
0.05542664520663107,0.003310038981230744
0.06150985788580504,0.003603261645430373
0.06826071834272393,0.003939596882596443
0.0757525025877192,0.004286652798503021
0.08406652885618333,0.004617623733629532
0.09329304026284696,0.0049118128253172
0.10353218432956637,0.005154643821905897
0.11489510001873086,0.005336942826274019
0.1275051240713013,0.00545374576622477
0.1414991297434576,0.005503110672720505
0.15702901247293774,0.00548530103734175
0.17426333860096507,0.005402402652060513
0.19338917504552322,0.005258180520326122
0.21461411978584058,0.005057928549014006
0.23816855519761607,0.004808192588459942
0.2643081486974108,0.004516415633181987
0.29331662783900486,0.00419063004127563
0.32550885998350565,0.0038392751656229247
0.36123426997094304,0.003471116496414787
0.40088063288984643,0.0030951727654141325
0.4448782831127585,0.0027205614347042
0.4937047852839004,0.002356230543749711
0.5478901179593945,0.002010609245160279
0.6080224261649427,0.0016912477393985395
0.67475440531107,0.0014045261554423356
0.748810385759003,0.001155505014235698
0.8309941949353403,0.0009479788740533214
0.9221978823334341,0.0007847805165547201
1.0234114021054528,0.0006683622468339475
1.135733358343105,0.0006016565708922917
1.2603829296797273,0.0005891991716369767
1.3987131026472386,0.0006384763574145128
1.552225357427048,0.0007613882948292221
1.7225859653987874,0.0009755112230250643
1.9116440753857036,0.0013044537075071279
2.121451784910632,0.0017761954573266572
2.35428641432242,0.0024183485485750633
2.612675225563332,0.0032503952356968072
2.8994228538828812,0.004275235325119046
3.2176417502507353,0.0054746570611307
3.5707859649004625,0.006813240730003277
3.9626886387014784,0.008250803183249973
4.397603609302721,0.009756143273641627
4.880251583654434,0.011310282091141122
5.415871378079476,0.012892201111121942
6.010276782070388,0.014454503688500672
6.669919663030129,0.015910122031830377
7.401959996915652,0.017149293616716577
8.214343584919439,0.018083734843433744
9.115888299750837,0.01868724318427294
10.11637979766207,0.018995023726289147
11.226677735108158,0.01905125623918156
12.458833642950081,0.018838891007671842
13.826221737646593,0.018249686381735488
15.343684089300131,0.01713025710561449
17.02769172225898,0.015384045561928522
18.896523396912116,0.013063619607324902
20.970464013232306,0.01039027762803388
23.27202478960412,0.007686646305394341
25.826187606826746,0.005263722543739015
28.66067616948256,0.003325721285612324
31.80625692794119,0.0019345781182510313
35.297073027306574,0.0010346338224113277
39.17101490809261,0.00050826530489375
43.47013158125035,0.00022921244997791283
48.241087041653735,9.485480845735566e-05
53.535666774107185,3.601149253871661e-05
59.411339849650396,1.2540313399808785e-05
65.93188271333541,4.005075807561227e-06
73.16807143427206,1.1730433727680544e-06
81.19844993184009,3.150613453362713e-07
90.11018251665037,7.759574524105011e-08
100.0,1.7523923010089824e-08
