tau,gamma
1e-07,0.00040957196210358995
1.1097524964120721e-07,0.0009121289843341379
1.2315506032928263e-07,0.001698597132476954
1.3667163564620074e-07,0.002672862034755453
1.5167168884709241e-07,0.0036150213102281235
1.6831803533309585e-07,0.004312141428923619
1.867913599020781e-07,0.004690220269262501
2.0729217795953698e-07,0.004801567144285112
2.300430119772917e-07,0.004699330791350804
2.5529080682395163e-07,0.004370087597362095
2.833096101839324e-07,0.0037910329583058706
3.1440354715915e-07,0.002999489143729414
3.489101213406774e-07,0.002073858053036451
3.872038781812557e-07,0.0010733198241251636
4.2970047043208437e-07,2.75879821924529e-05
4.768611697714474e-07,-0.0010277442940053317
5.291978735958437e-07,-0.0020366070055076635
5.872786613189477e-07,-0.0029450643998464995
6.517339604882421e-07,-0.0037197459512377114
7.232633896483533e-07,-0.004339154861475811
8.026433522257174e-07,-0.0047796452370050535
8.907354638610439e-07,-0.005017526949987922
9.884959046625586e-07,-0.005038697904118299
1.096985797892384e-06,-0.00483956520534698
1.217382727739662e-06,-0.004420908259022728
1.3509935211980278e-06,-0.003785857399741497
1.499268432786047e-06,-0.0029438430813861086
1.6638168860761274e-06,-0.001913712051762866
1.8464249428955464e-06,-0.0007229680804061462
2.049074689815846e-06,0.0005934953038070256
2.2739657523579273e-06,0.0019926855747812084
2.523539170434766e-06,0.003422646448000617
2.800503894183631e-06,0.00482375107824587
3.107866187782014e-06,0.0061317392312330195
3.4489622604057595e-06,0.007281027863335088
3.827494478516315e-06,0.00820811737632237
4.247571552536894e-06,0.00885574085222648
4.713753134116729e-06,0.009177664056923341
5.2310993080562585e-06,0.009143177780981416
5.805225516094895e-06,0.008740564516155347
6.44236350872137e-06,0.007979352883480654
7.149428986597577e-06,0.006891257932959642
7.934096665797492e-06,0.0055295378767570265
8.804883581643465e-06,0.003966562186117004
9.771241535346501e-06,0.0022897920521461786
1.0843659686896109e-05,0.0005965518108101672
1.2033778407775906e-05,-0.0010120135731867285
1.3354515629298974e-05,-0.0024374191104282457
1.48202070579886e-05,-0.0035903415359860007
1.6446761779946626e-05,-0.004396617970082362
1.8251834943190462e-05,-0.004802301148235384
2.0255019392306664e-05,-0.004777383935399009
2.2478058335487252e-05,-0.004317915916840713
2.4945081352303165e-05,-0.0034463554290368875
2.7682866303920665e-05,-0.0022101157652657487
3.072112998861759e-05,-0.000678487143976571
3.409285069746814e-05,0.001061808223612399
3.783462617131933e-05,0.0029120823866857696
4.1987070844439056e-05,0.004767805144895116
4.659525668664687e-05,0.006525033462010964
5.170920242896755e-05,0.008086755900539786
5.7384416483024044e-05,0.009368826996223791
6.368249944718586e-05,0.010305132604623693
7.067181273927492e-05,0.010851652528584778
7.842822061337681e-05,0.010989113406000171
8.703591361485166e-05,0.010723997971280297
9.658832241158708e-05,0.010087878631653962
0.00010718913192051276,0.009135133462076915
0.00011895340673703195,0.007939264182423892
0.0001320088400831418,0.0065881520591568885
0.00014649713983072864,0.005178716082917531
0.0001625755666443795,0.003811497309408144
0.00018041864093920718,0.002585523959437593
0.00020022003718155845,0.001593745570664821
0.0002221946860939524,0.0009193377114011514
0.0002465811075822604,0.0006331970196894955
0.0002736439997074672,0.0007926623987378399
0.00030367711180354605,0.0014410842251626785
0.00033700643292719284,0.0026079697699467326
0.0003739937302478798,0.004309808808880762
0.0004150404757850477,0.006551596708417185
0.00046059220411451084,0.00932831367948605
0.0005111433483440171,0.012625512534794534
0.0005672426068491978,0.016419440168029903
0.0006294988990221888,0.020677889198479717
0.0006985879746785249,0.02536158885856295
0.0007752597488629464,0.030424334497569625
0.000860346441668451,0.03581187978673902
0.0009547716114208065,0.04146308443643019
0.001059560179277617,0.0473160650305931
0.0011758495540521582,0.0533172990210415
0.0013049019780144017,0.05943031646844483
0.001448118227674533,0.06564304069011863
0.0016070528182616384,0.07196611711111278
0.0017834308769319094,0.07840267720147603
0.0019791668678535573,0.08489545093492724
0.002196385372416547,0.09133589701817756
0.002437444150122222,0.09773693378441077
0.002704959730463137,0.10449703896937623
0.0030018358135755923,0.11252302517902296
0.003331294787934677,0.12323754770389166
0.0036969127071950323,0.13885821777967836
0.00410265810582719,0.1626824528911034
0.004552935074866948,0.19779034157564965
0.00505263106533568,0.24368525276381262
0.005607169938205458,0.2949006917030727
0.006222570836730231,0.3464942040776237
0.006905513520162331,0.4018055166687371
0.007663410868007463,0.4687385080132075
0.008504489341802686,0.5424080262334826
0.009437878277775391,0.5960472785786864
0.010473708979594508,0.599731413696635
0.011623224686798541,0.5499522709732623
0.01289890261253308,0.47347155992940654
0.014314589375234785,0.40052141213463915
0.015885651294280528,0.34108961730375104
0.01762914118095948,0.28859666715175225
0.01956398343517065,0.23756385706089267
0.021711179456945052,0.19104356453246393
0.02409403560239527,0.15468460017992938
0.026738416158399492,0.13012002960991786
0.029673024081888724,0.11482883096685746
0.032929712550971546,0.10526043380769334
0.036543830709572546,0.09872464625280433
0.040554607358408275,0.09353292578020402
0.04500557675700498,0.08873256401418865
0.0499450511585514,0.08397087558930882
0.05542664520663107,0.07929239933521513
0.06150985788580504,0.07484038588854432
0.06826071834272393,0.07066495357553214
0.0757525025877192,0.06671240241540857
0.08406652885618333,0.06289213557966154
0.09329304026284696,0.05912208970978887
0.10353218432956637,0.05533920217114892
0.11489510001873086,0.05149703427025879
0.1275051240713013,0.0475611258325762
0.1414991297434576,0.04350260842359619
0.15702901247293774,0.03929286559489368
0.17426333860096507,0.0349025157649206
0.19338917504552322,0.03030340198546897
0.21461411978584058,0.025470151416668033
0.23816855519761607,0.020380629731507907
0.2643081486974108,0.01501695230375745
0.29331662783900486,0.009367705977684843
0.32550885998350565,0.0034303717973294553
0.36123426997094304,-0.0027868690271222224
0.40088063288984643,-0.009263656741310909
0.4448782831127585,-0.015965995317387825
0.4937047852839004,-0.022845133340424293
0.5478901179593945,-0.029837253216012872
0.6080224261649427,-0.036863923751199436
0.67475440531107,-0.04383311077152482
0.748810385759003,-0.05064091482953096
0.8309941949353403,-0.057174234428140944
0.9221978823334341,-0.06331416082542281
1.0234114021054528,-0.06893966665897179
1.135733358343105,-0.07393184202156784
1.2603829296797273,-0.07817924710185936
1.3987131026472386,-0.08158405875501511
1.552225357427048,-0.0840676782522495
1.7225859653987874,-0.08557513930819362
1.9116440753857036,-0.08607922559553585
2.121451784910632,-0.08558424058084221
2.35428641432242,-0.08412687867086134
2.612675225563332,-0.0817721951194181
2.8994228538828812,-0.078607582930484
3.2176417502507353,-0.07473941189822285
3.5707859649004625,-0.07029085755359707
3.9626886387014784,-0.0653948535997842
4.397603609302721,-0.06018285141901896
4.880251583654434,-0.05477935439052981
5.415871378079476,-0.04930574891791193
6.010276782070388,-0.04388115305403275
6.669919663030129,-0.038610078069828364
7.401959996915652,-0.03356901004329074
8.214343584919439,-0.02881143812701833
9.115888299750837,-0.02438562294353519
10.11637979766207,-0.020337547519226062
11.226677735108158,-0.01668885379241409
12.458833642950081,-0.013414853238980923
13.826221737646593,-0.010455785380727655
15.343684089300131,-0.007766945435401683
17.02769172225898,-0.005373501455534685
18.896523396912116,-0.0033751974119368157
20.970464013232306,-0.0018785064659531886
23.27202478960412,-0.0009074359667531214
25.826187606826746,-0.0003743607090686724
28.66067616948256,-0.00013033798592913766
31.80625692794119,-3.797634062631035e-05
35.297073027306574,-9.206943460036615e-06
39.17101490809261,-1.850094905794075e-06
43.47013158125035,-3.073468874858071e-07
48.241087041653735,-4.213871526634945e-08
53.535666774107185,-4.762849662486521e-09
59.411339849650396,-4.434746598939007e-10
65.93188271333541,-3.4000123919564466e-11
73.16807143427206,-2.145692070181566e-12
81.19844993184009,-1.1144021897525849e-13
90.11018251665037,-4.762634576636554e-15
100.0,-1.6747358288134784e-16
