tau,gamma
1e-07,0.013305145316588801
1.1097524964120721e-07,0.028553243537008048
1.2315506032928263e-07,0.05017453664399887
1.3667163564620074e-07,0.07206452284626265
1.5167168884709241e-07,0.0844093516603687
1.6831803533309585e-07,0.08031903616258748
1.867913599020781e-07,0.06121348736429408
2.0729217795953698e-07,0.034449848442014076
2.300430119772917e-07,0.0059614140511179865
2.5529080682395163e-07,-0.022864521405445093
2.833096101839324e-07,-0.05134550235226353
3.1440354715915e-07,-0.07571933254823246
3.489101213406774e-07,-0.09095057631134065
3.872038781812557e-07,-0.0946776177801248
4.2970047043208437e-07,-0.08764075094311369
4.768611697714474e-07,-0.07119341392687199
5.291978735958437e-07,-0.04625224181134879
5.872786613189477e-07,-0.01460661178877248
6.517339604882421e-07,0.02022514936487717
7.232633896483533e-07,0.054017228347521665
8.026433522257174e-07,0.08313654826577856
8.907354638610439e-07,0.10468181220041521
9.884959046625586e-07,0.1161584745513513
1.096985797892384e-06,0.11581809579720212
1.217382727739662e-06,0.10340003541009951
1.3509935211980278e-06,0.08034009439742953
1.499268432786047e-06,0.0493090554394585
1.6638168860761274e-06,0.013670497190375032
1.8464249428955464e-06,-0.022813218081969178
2.049074689815846e-06,-0.05622389570082397
2.2739657523579273e-06,-0.08290277216793819
2.523539170434766e-06,-0.09997105735474217
2.800503894183631e-06,-0.10576220929125715
3.107866187782014e-06,-0.1000504457495936
3.4489622604057595e-06,-0.08404761298676154
3.827494478516315e-06,-0.06017730237440367
4.247571552536894e-06,-0.03167397158567341
4.713753134116729e-06,-0.002116563927437315
5.2310993080562585e-06,0.024995848032788277
5.805225516094895e-06,0.04661077117726539
6.44236350872137e-06,0.060469929326979664
7.149428986597577e-06,0.06541295906861118
7.934096665797492e-06,0.06152711614281749
8.804883581643465e-06,0.05006778755300241
9.771241535346501e-06,0.0331922940400178
1.0843659686896109e-05,0.013605924026304774
1.2033778407775906e-05,-0.0058081037399845955
1.3354515629298974e-05,-0.02234944544112718
1.48202070579886e-05,-0.03384276193051422
1.6446761779946626e-05,-0.038930803620801965
1.8251834943190462e-05,-0.03725880330703959
2.0255019392306664e-05,-0.02948921209359917
2.2478058335487252e-05,-0.017140029441731684
2.4945081352303165e-05,-0.0023050682045502114
2.7682866303920665e-05,0.012675406642585709
3.072112998861759e-05,0.025552389606996618
3.409285069746814e-05,0.03448897508815792
3.783462617131933e-05,0.03832783654861564
4.1987070844439056e-05,0.03675536003430739
4.659525668664687e-05,0.030323946465911807
5.170920242896755e-05,0.02032521891433392
5.7384416483024044e-05,0.008549162372315523
6.368249944718586e-05,-0.003010415577762497
7.067181273927492e-05,-0.01245831677586679
7.842822061337681e-05,-0.018284589958471695
8.703591361485166e-05,-0.019607254631459323
9.658832241158708e-05,-0.01632196014856827
0.00010718913192051276,-0.009115090963426272
0.00011895340673703195,0.0006595719299698715
0.0001320088400831418,0.01120475600289863
0.00014649713983072864,0.02056104582984458
0.0001625755666443795,0.02690931578473142
0.00018041864093920718,0.028863386772347434
0.00020022003718155845,0.02571570877142373
0.0002221946860939524,0.017590648511349383
0.0002465811075822604,0.005464535005783808
0.0002736439997074672,-0.00895720399791087
0.00030367711180354605,-0.023469773332617922
0.00033700643292719284,-0.03565663466135248
0.0003739937302478798,-0.04320662772018624
0.0004150404757850477,-0.04424362782845251
0.00046059220411451084,-0.03763415196610747
0.0005111433483440171,-0.023212072281245912
0.0005672426068491978,-0.0018625276982114048
0.0006294988990221888,0.024559690258870653
0.0006985879746785249,0.05345360758537866
0.0007752597488629464,0.08177576557896213
0.000860346441668451,0.10637690460826586
0.0009547716114208065,0.12436773685467539
0.001059560179277617,0.13351910072050796
0.0011758495540521582,0.13265683922807955
0.0013049019780144017,0.12195338462608664
0.001448118227674533,0.1030074413492548
0.0016070528182616384,0.07866286506519667
0.0017834308769319094,0.05263729480057291
0.0019791668678535573,0.029108838904321206
0.002196385372416547,0.012329672227472072
0.002437444150122222,0.006200786229919687
0.002704959730463137,0.013753785691133419
0.0030018358135755923,0.03664371945379807
0.003331294787934677,0.07485101382892387
0.0036969127071950323,0.12670348138777532
0.00410265810582719,0.18917450812162542
0.004552935074866948,0.2583042152811594
0.00505263106533568,0.32957514168042507
0.005607169938205458,0.3981738692495385
0.006222570836730231,0.45921241351449826
0.006905513520162331,0.508068551255367
0.007663410868007463,0.5409528298534012
0.008504489341802686,0.5555930106220731
0.009437878277775391,0.5516825781435479
0.010473708979594508,0.5307744023442145
0.011623224686798541,0.4956893635119785
0.01289890261253308,0.44982323872846336
0.014314589375234785,0.39665177592749684
0.015885651294280528,0.3394738240271648
0.01762914118095948,0.2813062784779666
0.01956398343517065,0.22486855576281567
0.021711179456945052,0.17261582558799834
0.02409403560239527,0.12675733844186715
0.026738416158399492,0.08920032005801386
0.029673024081888724,0.06141686863162897
0.032929712550971546,0.044282428037653
0.036543830709572546,0.037935053767746085
0.040554607358408275,0.04168542371164772
0.04500557675700498,0.053996760068035055
0.0499450511585514,0.0725498330583277
0.05542664520663107,0.09439735925780637
0.06150985788580504,0.11619308360381835
0.06826071834272393,0.13447674563927767
0.0757525025877192,0.14600655285438643
0.08406652885618333,0.1481415135591519
0.09329304026284696,0.1392627598763725
0.10353218432956637,0.11915710029673862
0.11489510001873086,0.08920541872295382
0.1275051240713013,0.052239101184477034
0.1414991297434576,0.0121174715335639
0.15702901247293774,-0.026751849940428698
0.17426333860096507,-0.059830964194880765
0.19338917504552322,-0.08292242677288103
0.21461411978584058,-0.09281466747383646
0.23816855519761607,-0.08797301695749969
0.2643081486974108,-0.0689635528103054
0.29331662783900486,-0.038390393366112274
0.32550885998350565,-0.0003815796334678727
0.36123426997094304,0.04010428009687971
0.40088063288984643,0.07785019209021071
0.4448782831127585,0.10780364630457412
0.4937047852839004,0.12558362928412092
0.5478901179593945,0.12817189973312657
0.6080224261649427,0.11451154820690991
0.67475440531107,0.08565148278405338
0.748810385759003,0.04440178393050574
0.8309941949353403,-0.005239147669529511
0.9221978823334341,-0.05862460585465282
1.0234114021054528,-0.1108735170420864
1.135733358343105,-0.15722083084810545
1.2603829296797273,-0.19342058840612353
1.3987131026472386,-0.2162573063591655
1.552225357427048,-0.22408107292575874
1.7225859653987874,-0.21714847664713666
1.9116440753857036,-0.19753790946228297
2.121451784910632,-0.16861190888581445
2.35428641432242,-0.13431928898697876
2.612675225563332,-0.09866896472015685
2.8994228538828812,-0.0653638783629447
3.2176417502507353,-0.037372124039097725
3.5707859649004625,-0.016484995312136496
3.9626886387014784,-0.003206692330961752
4.397603609302721,0.0029548139791619257
4.880251583654434,0.003195413155233372
5.415871378079476,-0.00066419160593035
6.010276782070388,-0.00643842102139031
6.669919663030129,-0.012300545876845016
7.401959996915652,-0.017360846722545106
8.214343584919439,-0.021353158367793584
9.115888299750837,-0.023927252578750675
10.11637979766207,-0.024769490514471703
11.226677735108158,-0.024426396547527766
12.458833642950081,-0.02421393314889205
13.826221737646593,-0.024716309555264753
15.343684089300131,-0.024765660175046795
17.02769172225898,-0.0225544467463963
18.896523396912116,-0.017666309801809974
20.970464013232306,-0.011576837723420889
23.27202478960412,-0.006274181112059864
25.826187606826746,-0.0028002080976216345
28.66067616948256,-0.0010277683324363203
31.80625692794119,-0.0003101291632396334
35.297073027306574,-7.694055038027894e-05
39.17101490809261,-1.569612717135478e-05
43.47013158125035,-2.633366128049846e-06
48.241087041653735,-3.6337600300024937e-07
53.535666774107185,-4.12439081378497e-08
59.411339849650396,-3.850740858259708e-09
65.93188271333541,-2.9575001588145607e-10
73.16807143427206,-1.8685783009938208e-11
81.19844993184009,-9.712040598586803e-13
90.11018251665037,-4.1526629598325723e-14
100.0,-1.4607057045758295e-15
