tau,gamma
1e-07,5.457463048394153e-07
1.1097524964120721e-07,4.689547164996272e-06
1.2315506032928263e-07,2.3559688975540952e-05
1.3667163564620074e-07,7.006231380405187e-05
1.5167168884709241e-07,0.00012810686470678457
1.6831803533309585e-07,0.00015907504526958051
1.867913599020781e-07,0.00015986552427165924
2.0729217795953698e-07,0.00015085096979506514
2.300430119772917e-07,0.00014164404004052262
2.5529080682395163e-07,0.00013524226209416556
2.833096101839324e-07,0.0001305195174055316
3.1440354715915e-07,0.00012807665538067938
3.489101213406774e-07,0.00012650897700526635
3.872038781812557e-07,0.0001262046697213096
4.2970047043208437e-07,0.0001256580717677607
4.768611697714474e-07,0.00012480858725406364
5.291978735958437e-07,0.00012243922887328446
5.872786613189477e-07,0.00011785570941557232
6.517339604882421e-07,0.00011125791984503472
7.232633896483533e-07,0.0001015825036408234
8.026433522257174e-07,9.072742251824599e-05
8.907354638610439e-07,7.828773368945517e-05
9.884959046625586e-07,6.606065125552966e-05
1.096985797892384e-06,5.457156684786771e-05
1.217382727739662e-06,4.433481300775475e-05
1.3509935211980278e-06,3.585448055299155e-05
1.499268432786047e-06,2.8848518414178755e-05
1.6638168860761274e-06,2.3417157382577876e-05
1.8464249428955464e-06,1.912035727768195e-05
2.049074689815846e-06,1.588116204974158e-05
2.2739657523579273e-06,1.3357757004656252e-05
2.523539170434766e-06,1.1467393317776938e-05
2.800503894183631e-06,9.998267071289554e-06
3.107866187782014e-06,8.89568711995172e-06
3.4489622604057595e-06,8.045056981460291e-06
3.827494478516315e-06,7.408224177582896e-06
4.247571552536894e-06,6.935270867968466e-06
4.713753134116729e-06,6.590990130563793e-06
5.2310993080562585e-06,6.369200006100078e-06
5.805225516094895e-06,6.230599375220648e-06
6.44236350872137e-06,6.199010519912198e-06
7.149428986597577e-06,6.2297992133131155e-06
7.934096665797492e-06,6.365566591186609e-06
8.804883581643465e-06,6.558006953052095e-06
9.771241535346501e-06,6.857216115993267e-06
1.0843659686896109e-05,7.213113352217929e-06
1.2033778407775906e-05,7.669311186809564e-06
1.3354515629298974e-05,8.17727850038749e-06
1.48202070579886e-05,8.753427374444344e-06
1.6446761779946626e-05,9.363712389246731e-06
1.8251834943190462e-05,9.969767386961193e-06
2.0255019392306664e-05,1.0579469300501807e-05
2.2478058335487252e-05,1.1084645599052866e-05
2.4945081352303165e-05,1.1554330866442977e-05
2.7682866303920665e-05,1.184389077586467e-05
3.072112998861759e-05,1.2054570925834729e-05
3.409285069746814e-05,1.2082970024381753e-05
3.783462617131933e-05,1.1997537344985096e-05
4.1987070844439056e-05,1.1792381935017006e-05
4.659525668664687e-05,1.1464001883588243e-05
5.170920242896755e-05,1.1096184462149313e-05
5.7384416483024044e-05,1.0627700235567184e-05
6.368249944718586e-05,1.0182254177000765e-05
7.067181273927492e-05,9.685144621991025e-06
7.842822061337681e-05,9.247192356527402e-06
8.703591361485166e-05,8.818887100358077e-06
9.658832241158708e-05,8.468332378620947e-06
0.00010718913192051276,8.184745851622456e-06
0.00011895340673703195,7.992977311281505e-06
0.0001320088400831418,7.916781546727517e-06
0.00014649713983072864,7.95450900354741e-06
0.0001625755666443795,8.16104855261024e-06
0.00018041864093920718,8.53063421955761e-06
0.00020022003718155845,9.158571482562139e-06
0.0002221946860939524,1.0063451874826604e-05
0.0002465811075822604,1.1407403341303104e-05
0.0002736439997074672,1.3280240490508014e-05
0.00030367711180354605,1.631879418764693e-05
0.00033700643292719284,3.132541123175253e-05
0.0003739937302478798,0.00025262935972568656
0.0004150404757850477,0.0027030556734938807
0.00046059220411451084,0.01863220094707221
0.0005111433483440171,0.07786467329653338
0.0005672426068491978,0.20743290122693556
0.0006294988990221888,0.4002619492740962
0.0006985879746785249,0.6473843020284885
0.0007752597488629464,0.9063249115679154
0.000860346441668451,1.0985040318421886
0.0009547716114208065,1.2105284446062907
0.001059560179277617,1.2064110038085367
0.0011758495540521582,1.0895997227729148
0.0013049019780144017,0.9001663045885013
0.001448118227674533,0.6524628248735893
0.0016070528182616384,0.41429732009208187
0.0017834308769319094,0.21858639868016388
0.0019791668678535573,0.08224192107642142
0.002196385372416547,0.019680706935138327
0.002437444150122222,0.002929537044977996
0.002704959730463137,0.00032188030764124947
0.0030018358135755923,7.022303757708257e-05
0.003331294787934677,5.735706946336614e-05
0.0036969127071950323,0.00020802309193428015
0.00410265810582719,0.002098809140013684
0.004552935074866948,0.015294474441395705
0.00505263106533568,0.06801890519596704
0.005607169938205458,0.19344465006572958
0.006222570836730231,0.40041655499885076
0.006905513520162331,0.6948328536040533
0.007663410868007463,1.0332350927435618
0.008504489341802686,1.3099651933341157
0.009437878277775391,1.4861910437024168
0.010473708979594508,1.4882279971569052
0.011623224686798541,1.294797314646044
0.01289890261253308,0.9760750562570215
0.014314589375234785,0.5707176760094032
0.015885651294280528,0.23111604030920752
0.01762914118095948,0.06550832540281908
0.01956398343517065,0.014532613724641109
0.021711179456945052,0.002635385874721172
0.02409403560239527,0.00035090720954471434
0.026738416158399492,3.329663808868547e-05
0.029673024081888724,4.888652664287662e-06
0.032929712550971546,2.9105323903708894e-06
0.036543830709572546,2.499700986203463e-06
0.040554607358408275,2.271187614225308e-06
0.04500557675700498,2.132919283939495e-06
0.0499450511585514,2.0764516299562736e-06
0.05542664520663107,2.078851678734281e-06
0.06150985788580504,2.1501006841156157e-06
0.06826071834272393,2.2826897750992194e-06
0.0757525025877192,2.499126582197123e-06
0.08406652885618333,2.8081959394238047e-06
0.09329304026284696,3.24966897779812e-06
0.10353218432956637,3.858675962625171e-06
0.11489510001873086,4.700045352849789e-06
0.1275051240713013,5.833988328600881e-06
0.1414991297434576,7.374201314765241e-06
0.15702901247293774,1.097547175921004e-05
0.17426333860096507,4.178008957108254e-05
0.19338917504552322,0.00039127151306564677
0.21461411978584058,0.0033400906045003313
0.23816855519761607,0.018718290212980583
0.2643081486974108,0.06383631699687692
0.29331662783900486,0.13229761374279372
0.32550885998350565,0.17636051146685566
0.36123426997094304,0.1716046960980668
0.40088063288984643,0.13594148030956227
0.4448782831127585,0.08272250672887306
0.4937047852839004,0.03359707126959114
0.5478901179593945,0.008348629662776318
0.6080224261649427,0.001230310790211411
0.67475440531107,0.00010938395051676868
0.748810385759003,8.375565126517146e-06
0.8309941949353403,2.5313439419065436e-06
0.9221978823334341,1.8895036948068905e-06
1.0234114021054528,1.5520806704795783e-06
1.135733358343105,1.309914910137104e-06
1.2603829296797273,1.1383268223751164e-06
1.3987131026472386,1.0116251121613992e-06
1.552225357427048,9.223486225273725e-07
1.7225859653987874,8.586344474309547e-07
1.9116440753857036,8.175134193545176e-07
2.121451784910632,7.945316344456286e-07
2.35428641432242,7.879428191505886e-07
2.612675225563332,7.984151869818053e-07
2.8994228538828812,8.245853790197074e-07
3.2176417502507353,8.719097150221853e-07
3.5707859649004625,9.401920443459162e-07
3.9626886387014784,1.041235444458242e-06
4.397603609302721,1.1793367349460519e-06
4.880251583654434,1.3783783317494156e-06
5.415871378079476,1.6576029199932572e-06
6.010276782070388,2.072294253722404e-06
6.669919663030129,2.6931816500908308e-06
7.401959996915652,3.6817493155016575e-06
8.214343584919439,5.318255264934173e-06
9.115888299750837,8.249293615027626e-06
10.11637979766207,1.3959564076004952e-05
11.226677735108158,2.641224555204607e-05
12.458833642950081,5.3972949687679535e-05
13.826221737646593,0.00010149396689984087
15.343684089300131,0.0001407838566739565
17.02769172225898,0.00012438599312516934
18.896523396912116,6.584175315791995e-05
20.970464013232306,2.0453717098210404e-05
23.27202478960412,3.7049441697491485e-06
25.826187606826746,3.905489340141812e-07
28.66067616948256,2.3943917378287018e-08
31.80625692794119,8.536167366165388e-10
35.297073027306574,1.769518399138432e-11
39.17101490809261,2.13287102957464e-13
43.47013158125035,1.4948214481359081e-15
48.241087041653735,6.091561226072332e-18
53.535666774107185,1.4433853067730843e-20
59.411339849650396,1.9886129398431083e-23
65.93188271333541,1.5930614891309838e-26
73.16807143427206,7.420430618665586e-30
81.19844993184009,2.0097404264156637e-33
90.11018251665037,3.164937352309748e-37
100.0,2.898041208974708e-41
