tau,gamma
1e-07,9.199496453294495e-07
1.1097524964120721e-07,7.899159701147817e-06
1.2315506032928263e-07,3.9587227225045426e-05
1.3667163564620074e-07,0.00011679432234364296
1.5167168884709241e-07,0.00020840011256316546
1.6831803533309585e-07,0.00024247328162116502
1.867913599020781e-07,0.00021449912642348054
2.0729217795953698e-07,0.00017003773566431294
2.300430119772917e-07,0.0001306722302528163
2.5529080682395163e-07,0.00010507201500780514
2.833096101839324e-07,9.396036814674483e-05
3.1440354715915e-07,9.151021288718527e-05
3.489101213406774e-07,9.13373912031839e-05
3.872038781812557e-07,9.075502537916957e-05
4.2970047043208437e-07,8.674631950257063e-05
4.768611697714474e-07,8.252977478990324e-05
5.291978735958437e-07,8.95054614334323e-05
5.872786613189477e-07,0.00013829993594793286
6.517339604882421e-07,0.00030217052748002574
7.232633896483533e-07,0.0006749839848126239
8.026433522257174e-07,0.001364541143135985
8.907354638610439e-07,0.002499371177048559
9.884959046625586e-07,0.0040120011545899245
1.096985797892384e-06,0.005801598519387144
1.217382727739662e-06,0.007771918543220193
1.3509935211980278e-06,0.009585774745086062
1.499268432786047e-06,0.011200564923893923
1.6638168860761274e-06,0.01233671413199034
1.8464249428955464e-06,0.01291924498347374
2.049074689815846e-06,0.012965390619245004
2.2739657523579273e-06,0.012352861700010868
2.523539170434766e-06,0.011357689260036255
2.800503894183631e-06,0.009951031075219918
3.107866187782014e-06,0.008430934001456857
3.4489622604057595e-06,0.006962752643513296
3.827494478516315e-06,0.005709834442721745
4.247571552536894e-06,0.0049162710915500825
4.713753134116729e-06,0.004648804716697135
5.2310993080562585e-06,0.005007615586431097
5.805225516094895e-06,0.00603451222160635
6.44236350872137e-06,0.007615655982554062
7.149428986597577e-06,0.00970257124167185
7.934096665797492e-06,0.012117828143043715
8.804883581643465e-06,0.014595565591044838
9.771241535346501e-06,0.017077076068688964
1.0843659686896109e-05,0.019124056473575336
1.2033778407775906e-05,0.020783250866936633
1.3354515629298974e-05,0.021715123349588
1.48202070579886e-05,0.021906545867720326
1.6446761779946626e-05,0.021377246645824504
1.8251834943190462e-05,0.019987015582332294
2.0255019392306664e-05,0.01809585361675763
2.2478058335487252e-05,0.015589428632971247
2.4945081352303165e-05,0.012893747757773716
2.7682866303920665e-05,0.010116846485086676
3.072112998861759e-05,0.007511746500011545
3.409285069746814e-05,0.0053923231179512305
3.783462617131933e-05,0.003843573730043723
4.1987070844439056e-05,0.0031425935288409623
4.659525668664687e-05,0.0033666182914535614
5.170920242896755e-05,0.004563236827799175
5.7384416483024044e-05,0.006850783460514719
6.368249944718586e-05,0.010071793686947982
7.067181273927492e-05,0.014219822410243112
7.842822061337681e-05,0.019158358599498014
8.703591361485166e-05,0.02455369074518147
9.658832241158708e-05,0.030464969015435776
0.00010718913192051276,0.036271512057524255
0.00011895340673703195,0.04212318638664753
0.0001320088400831418,0.047445647263480516
0.00014649713983072864,0.052176037899445034
0.0001625755666443795,0.05617608994179783
0.00018041864093920718,0.058978206460996954
0.00020022003718155845,0.06099758606938582
0.0002221946860939524,0.061521874061606543
0.0002465811075822604,0.06125347586417643
0.0002736439997074672,0.05967250810572413
0.00030367711180354605,0.057345083940693174
0.00033700643292719284,0.054314275642412764
0.0003739937302478798,0.05079391456571931
0.0004150404757850477,0.047392273484886005
0.00046059220411451084,0.0441208351282859
0.0005111433483440171,0.04181164752591548
0.0005672426068491978,0.04058135957165332
0.0006294988990221888,0.04113269258804773
0.0006985879746785249,0.0437655165864156
0.0007752597488629464,0.04900881523346893
0.000860346441668451,0.057025077462431614
0.0009547716114208065,0.0683902956839845
0.001059560179277617,0.08272193006684658
0.0011758495540521582,0.10068441095431215
0.0013049019780144017,0.12143868559497321
0.001448118227674533,0.14520125607419734
0.0016070528182616384,0.17145185693619816
0.0017834308769319094,0.19907898571620178
0.0019791668678535573,0.22873161502736555
0.002196385372416547,0.2575960394574904
0.002437444150122222,0.28749128326421725
0.002704959730463137,0.3146952955020042
0.0030018358135755923,0.3407245698353034
0.003331294787934677,0.36245924475465874
0.0036969127071950323,0.38029782827421577
0.00410265810582719,0.39581582759163275
0.004552935074866948,0.4064027328431283
0.00505263106533568,0.4114688087114753
0.005607169938205458,0.40410691950990624
0.006222570836730231,0.3916371333612323
0.006905513520162331,0.37393860688404107
0.007663410868007463,0.35397002219940304
0.008504489341802686,0.3294641707326318
0.009437878277775391,0.30078202354788375
0.010473708979594508,0.2705112879152253
0.011623224686798541,0.23750039639364545
0.01289890261253308,0.20534823494926382
0.014314589375234785,0.17235207514560175
0.015885651294280528,0.1414818339897953
0.01762914118095948,0.11216940434052967
0.01956398343517065,0.08566577728267995
0.021711179456945052,0.06270925793786736
0.02409403560239527,0.04306702876813264
0.026738416158399492,0.02777148705672504
0.029673024081888724,0.016099117263235967
0.032929712550971546,0.00825480748367304
0.036543830709572546,0.0036149130116668
0.040554607358408275,0.0012362442101170727
0.04500557675700498,0.0005353026070335112
0.0499450511585514,0.0008877451255421775
0.05542664520663107,0.0019852454460115047
0.06150985788580504,0.0034972407761037364
0.06826071834272393,0.005056335583394627
0.0757525025877192,0.00651400810212538
0.08406652885618333,0.007496492301935364
0.09329304026284696,0.007929048762231918
0.10353218432956637,0.007780110944846467
0.11489510001873086,0.006995178940926711
0.1275051240713013,0.005857665121700809
0.1414991297434576,0.004432587068103314
0.15702901247293774,0.0030204209784173235
0.17426333860096507,0.0018400591945829643
0.19338917504552322,0.0009462883455142939
0.21461411978584058,0.000426985271183509
0.23816855519761607,0.00018917742744947033
0.2643081486974108,9.642013869252864e-05
0.29331662783900486,7.115923260367544e-05
0.32550885998350565,6.947342158054233e-05
0.36123426997094304,7.261849404467273e-05
0.40088063288984643,7.547530542706583e-05
0.4448782831127585,7.543929950299496e-05
0.4937047852839004,7.305818544320252e-05
0.5478901179593945,6.743302905675318e-05
0.6080224261649427,5.979114878619719e-05
0.67475440531107,5.119574175201111e-05
0.748810385759003,4.227423279504378e-05
0.8309941949353403,3.448742845704157e-05
0.9221978823334341,2.7857118351637543e-05
1.0234114021054528,2.2692409083106344e-05
1.135733358343105,1.866890427634371e-05
1.2603829296797273,1.5666049527808015e-05
1.3987131026472386,1.338497615205761e-05
1.552225357427048,1.1696621067899818e-05
1.7225859653987874,1.0436949012466147e-05
1.9116440753857036,9.519984431311743e-06
2.121451784910632,8.87850731350191e-06
2.35428641432242,8.452153997154257e-06
2.612675225563332,8.235049965915657e-06
2.8994228538828812,8.179270075904716e-06
3.2176417502507353,8.32189281017666e-06
3.5707859649004625,8.624228233512504e-06
3.9626886387014784,9.16193026331605e-06
4.397603609302721,9.912093873120986e-06
4.880251583654434,1.0997631100445152e-05
5.415871378079476,1.2430002793889223e-05
6.010276782070388,1.4394508229336753e-05
6.669919663030129,1.6944234166918765e-05
7.401959996915652,2.0273891425120027e-05
8.214343584919439,2.4375931581977066e-05
9.115888299750837,2.969990851876445e-05
10.11637979766207,3.741152872682941e-05
11.226677735108158,5.0035662323736686e-05
12.458833642950081,7.278351496143502e-05
13.826221737646593,0.00010723414991108197
15.343684089300131,0.00013220832794096
17.02769172225898,0.00011189613140846197
18.896523396912116,5.841785550840971e-05
20.970464013232306,1.8070530653357825e-05
23.27202478960412,3.2690415654337875e-06
25.826187606826746,3.444650007620425e-07
28.66067616948256,2.111610565924323e-08
31.80625692794119,7.527766776125881e-10
35.297073027306574,1.5604637225558774e-11
39.17101490809261,1.8808830395002483e-13
43.47013158125035,1.318214528206112e-15
48.241087041653735,5.371867098881947e-18
53.535666774107185,1.2728548672527351e-20
59.411339849650396,1.7536658993879986e-23
65.93188271333541,1.4048473338956635e-26
73.16807143427206,6.543734951149009e-30
81.19844993184009,1.7722972341246123e-33
90.11018251665037,2.791012033551889e-37
100.0,2.555648654953014e-41
