tau,gamma
1e-07,3.65858379557769e-06
1.1097524964120721e-07,3.149869480649103e-05
1.2315506032928263e-07,0.0001592496260366311
1.3667163564620074e-07,0.00048319060216509116
1.5167168884709241e-07,0.0009364664122761204
1.6831803533309585e-07,0.0013277788446275176
1.867913599020781e-07,0.001613905559883712
2.0729217795953698e-07,0.001783281123328256
2.300430119772917e-07,0.0018364981587737348
2.5529080682395163e-07,0.001806336038672466
2.833096101839324e-07,0.0016833010904484468
3.1440354715915e-07,0.0015134764699755619
3.489101213406774e-07,0.0013011217762943577
3.872038781812557e-07,0.0010758312814903518
4.2970047043208437e-07,0.0008576917460696132
4.768611697714474e-07,0.000654514144753797
5.291978735958437e-07,0.0004874072290537736
5.872786613189477e-07,0.0003546336070258431
6.517339604882421e-07,0.0002652257811087047
7.232633896483533e-07,0.00021865860718644348
8.026433522257174e-07,0.00021436335848766384
8.907354638610439e-07,0.00025567581179717865
9.884959046625586e-07,0.00034237106413350114
1.096985797892384e-06,0.00047965274422204684
1.217382727739662e-06,0.0006739054391256781
1.3509935211980278e-06,0.0009258806682245807
1.499268432786047e-06,0.0012508729049479142
1.6638168860761274e-06,0.0016401565192872103
1.8464249428955464e-06,0.002113547385591286
2.049074689815846e-06,0.0026598180918673037
2.2739657523579273e-06,0.0032887948903611817
2.523539170434766e-06,0.004004494030802275
2.800503894183631e-06,0.004788627925656717
3.107866187782014e-06,0.0056749168994840275
3.4489622604057595e-06,0.006609089459435025
3.827494478516315e-06,0.0076507712016193885
4.247571552536894e-06,0.0087244554537606
4.713753134116729e-06,0.009886882822069669
5.2310993080562585e-06,0.011079735563976366
5.805225516094895e-06,0.012311901222630716
6.44236350872137e-06,0.013587492669955474
7.149428986597577e-06,0.014831675519363008
7.934096665797492e-06,0.016133540968284316
8.804883581643465e-06,0.017337073817565413
9.771241535346501e-06,0.018592383291920294
1.0843659686896109e-05,0.019715290802005802
1.2033778407775906e-05,0.020848521754479085
1.3354515629298974e-05,0.021863799161745363
1.48202070579886e-05,0.022816424328926964
1.6446761779946626e-05,0.023705371871623696
1.8251834943190462e-05,0.024452367975553866
2.0255019392306664e-05,0.025200709490692544
2.2478058335487252e-05,0.025755304601117083
2.4945081352303165e-05,0.026353925947384917
2.7682866303920665e-05,0.02675847344704605
3.072112998861759e-05,0.027207676871494786
3.409285069746814e-05,0.027515990748558806
3.783462617131933e-05,0.027829069452397052
4.1987070844439056e-05,0.028088797725886724
4.659525668664687e-05,0.028292023288766927
5.170920242896755e-05,0.028533717078131772
5.7384416483024044e-05,0.028663391241681522
6.368249944718586e-05,0.028899019897196065
7.067181273927492e-05,0.028998278596937595
7.842822061337681e-05,0.029229117703481283
8.703591361485166e-05,0.029346510136397573
9.658832241158708e-05,0.029578596447276565
0.00010718913192051276,0.029769141552281567
0.00011895340673703195,0.030032329525685967
0.0001320088400831418,0.03036164045796577
0.00014649713983072864,0.030726076294253238
0.0001625755666443795,0.03127820945060176
0.00018041864093920718,0.03186232859962837
0.00020022003718155845,0.03274993745518249
0.0002221946860939524,0.03371808975933437
0.0002465811075822604,0.03508957054754899
0.0002736439997074672,0.036642297070657553
0.00030367711180354605,0.03867874836931262
0.00033700643292719284,0.04103986385140117
0.0003739937302478798,0.04393846147761957
0.0004150404757850477,0.04733871504030843
0.00046059220411451084,0.0512872660709655
0.0005111433483440171,0.05593860047458259
0.0005672426068491978,0.061091857970009524
0.0006294988990221888,0.06714658595459462
0.0006985879746785249,0.07361153371649291
0.0007752597488629464,0.08111078611072513
0.000860346441668451,0.08893601635482061
0.0009547716114208065,0.09776596524024302
0.001059560179277617,0.10691904700974415
0.0011758495540521582,0.11679817323450672
0.0013049019780144017,0.12711728810523626
0.001448118227674533,0.13765371475095345
0.0016070528182616384,0.1490681160150322
0.0017834308769319094,0.16169878958456763
0.0019791668678535573,0.18104894178968037
0.002196385372416547,0.20861436625069366
0.002437444150122222,0.2357854652258108
0.002704959730463137,0.2488547716281161
0.0030018358135755923,0.2771946070023733
0.003331294787934677,0.37864306640620077
0.0036969127071950323,0.5385102059462175
0.00410265810582719,0.6313863136769368
0.004552935074866948,0.5971072771341787
0.00505263106533568,0.5026900036860054
0.005607169938205458,0.393793332910965
0.006222570836730231,0.3035917633125101
0.006905513520162331,0.252228026535584
0.007663410868007463,0.22968126201559783
0.008504489341802686,0.21692506825306176
0.009437878277775391,0.20639336445672937
0.010473708979594508,0.19623836506259515
0.011623224686798541,0.18492509942453558
0.01289890261253308,0.1736410844529858
0.014314589375234785,0.16071094112358522
0.015885651294280528,0.14799877886673543
0.01762914118095948,0.13420535027144123
0.01956398343517065,0.12068477964382535
0.021711179456945052,0.10693308555184818
0.02409403560239527,0.09338550726645238
0.026738416158399492,0.08041872005857073
0.029673024081888724,0.06772503916363197
0.032929712550971546,0.05614798113641295
0.036543830709572546,0.04514252831644084
0.040554607358408275,0.035457572273012196
0.04500557675700498,0.026763098725773964
0.0499450511585514,0.019371664795919934
0.05542664520663107,0.01328760392301448
0.06150985788580504,0.008411252461629985
0.06826071834272393,0.004871955903503154
0.0757525025877192,0.002411236956189797
0.08406652885618333,0.0009938280868264297
0.09329304026284696,0.0003494423650466814
0.10353218432956637,9.585311017575729e-05
0.11489510001873086,1.829289910177405e-05
0.1275051240713013,3.232834252072733e-06
0.1414991297434576,1.8390007571146107e-06
0.15702901247293774,2.0952940740134682e-06
0.17426333860096507,2.3122036082376063e-06
0.19338917504552322,2.4518183432808335e-06
0.21461411978584058,2.5878770238060798e-06
0.23816855519761607,2.786128214807614e-06
0.2643081486974108,3.0814907940272587e-06
0.29331662783900486,3.5122518217423717e-06
0.32550885998350565,4.0879383494826906e-06
0.36123426997094304,4.757487708760941e-06
0.40088063288984643,5.291785883793956e-06
0.4448782831127585,5.421579278404424e-06
0.4937047852839004,5.318552265958374e-06
0.5478901179593945,6.118335954441152e-06
0.6080224261649427,1.314954191340217e-05
0.67475440531107,3.707031135028593e-05
0.748810385759003,8.923260424361795e-05
0.8309941949353403,0.00018551428399736145
0.9221978823334341,0.0003405859333667614
1.0234114021054528,0.0005508512281388288
1.135733358343105,0.0008233331725140248
1.2603829296797273,0.0011424499638345376
1.3987131026472386,0.0014914405015908202
1.552225357427048,0.0018659544516996505
1.7225859653987874,0.0022250495257203646
1.9116440753857036,0.0025792505750979466
2.121451784910632,0.0028851751997259955
2.35428641432242,0.0031502282784337124
2.612675225563332,0.003356660713972483
2.8994228538828812,0.0034909934880512474
3.2176417502507353,0.003572444691715605
3.5707859649004625,0.0035680354433952287
3.9626886387014784,0.0035203171669613317
4.397603609302721,0.0033961990003357353
4.880251583654434,0.0032353454409049065
5.415871378079476,0.0030250836791518554
6.010276782070388,0.002783317229203621
6.669919663030129,0.0025237681740361154
7.401959996915652,0.0022417288239101603
8.214343584919439,0.0019664234748333954
9.115888299750837,0.001683192995152741
10.11637979766207,0.0014190453113620237
11.226677735108158,0.0011627735029053896
12.458833642950081,0.0009273926258997976
13.826221737646593,0.0007091818136310989
15.343684089300131,0.0005038422070507275
17.02769172225898,0.0003123220861659661
18.896523396912116,0.0001438546071773777
20.970464013232306,4.266972261984025e-05
23.27202478960412,7.618723432950976e-06
25.826187606826746,7.996021436596434e-07
28.66067616948256,4.895741676417477e-08
31.80625692794119,1.7446672962381934e-09
35.297073027306574,3.6161998722613316e-11
39.17101490809261,4.35859134201641e-13
43.47013158125035,3.0546827808926135e-15
48.241087041653735,1.244812596929956e-17
53.535666774107185,2.94955981715491e-20
59.411339849650396,4.063731998175779e-23
65.93188271333541,3.255422024182335e-26
73.16807143427206,1.5163653612779754e-29
81.19844993184009,4.106905514364881e-33
90.11018251665037,6.467550964142091e-37
100.0,5.922148565599267e-41
