tau,gamma
1e-07,0.000286190134455936
1.1097524964120721e-07,0.0004248169055138697
1.2315506032928263e-07,0.0005866118821324774
1.3667163564620074e-07,0.0007570084066067292
1.5167168884709241e-07,0.0009184860892424236
1.6831803533309585e-07,0.001055846429906246
1.867913599020781e-07,0.0011606968059350933
2.0729217795953698e-07,0.0012329629903493578
2.300430119772917e-07,0.0012789412594220598
2.5529080682395163e-07,0.0013073519858768092
2.833096101839324e-07,0.001325729309794415
3.1440354715915e-07,0.001338818343377055
3.489101213406774e-07,0.0013491317315477533
3.872038781812557e-07,0.0013585767729297792
4.2970047043208437e-07,0.0013697970028197562
4.768611697714474e-07,0.0013864705925251478
5.291978735958437e-07,0.0014126617384480216
5.872786613189477e-07,0.0014518553894144338
6.517339604882421e-07,0.0015063127394251774
7.232633896483533e-07,0.0015770198813109062
8.026433522257174e-07,0.0016640770161279507
8.907354638610439e-07,0.0017671459650830668
9.884959046625586e-07,0.001885623451676624
1.096985797892384e-06,0.0020184496563767705
1.217382727739662e-06,0.0021637185149300663
1.3509935211980278e-06,0.0023183706394991994
1.499268432786047e-06,0.0024781701114011375
1.6638168860761274e-06,0.002637967498513725
1.8464249428955464e-06,0.002792078534581556
2.049074689815846e-06,0.002934578165795315
2.2739657523579273e-06,0.0030594337362478325
2.523539170434766e-06,0.0031605776497842623
2.800503894183631e-06,0.003232108809917096
3.107866187782014e-06,0.003268736328370344
3.4489622604057595e-06,0.003266383308697196
3.827494478516315e-06,0.003222693901643895
4.247571552536894e-06,0.0031371745266978923
4.713753134116729e-06,0.003010889155918479
5.2310993080562585e-06,0.0028459159034377093
5.805225516094895e-06,0.0026449677872789723
6.44236350872137e-06,0.002411528522163305
7.149428986597577e-06,0.0021505456709513407
7.934096665797492e-06,0.0018693231337824241
8.804883581643465e-06,0.0015780125669174014
9.771241535346501e-06,0.001289197771629363
1.0843659686896109e-05,0.0010164835176560978
1.2033778407775906e-05,0.0007725344733406614
1.3354515629298974e-05,0.0005673909836742056
1.48202070579886e-05,0.0004079503622708492
1.6446761779946626e-05,0.00029926724681432053
1.8251834943190462e-05,0.0002479422168354596
2.0255019392306664e-05,0.00026744708171560583
2.2478058335487252e-05,0.0003847325522162743
2.4945081352303165e-05,0.0006467318531843622
2.7682866303920665e-05,0.0011244399886799782
3.072112998861759e-05,0.0019116515957305399
3.409285069746814e-05,0.0031162308382152062
3.783462617131933e-05,0.004844792156462469
4.1987070844439056e-05,0.007186175619987653
4.659525668664687e-05,0.010202105924337394
5.170920242896755e-05,0.01393111357311714
5.7384416483024044e-05,0.018403343778359994
6.368249944718586e-05,0.02365451850487046
7.067181273927492e-05,0.02972604274913951
7.842822061337681e-05,0.036649385267152855
8.703591361485166e-05,0.04442865755406115
9.658832241158708e-05,0.05303973017371869
0.00010718913192051276,0.06244898486585517
0.00011895340673703195,0.07263262352648435
0.0001320088400831418,0.08357363573454214
0.00014649713983072864,0.09523757642955955
0.0001625755666443795,0.10755607122262717
0.00018041864093920718,0.1204424839560857
0.00020022003718155845,0.1338256863331515
0.0002221946860939524,0.14766046399803257
0.0002465811075822604,0.16189782741677128
0.0002736439997074672,0.17645216317416357
0.00030367711180354605,0.19121443230127785
0.00033700643292719284,0.20610500332805742
0.0003739937302478798,0.22110233337440832
0.0004150404757850477,0.2362075471345219
0.00046059220411451084,0.25139354774941086
0.0005111433483440171,0.2666289482585112
0.0005672426068491978,0.28199455096174536
0.0006294988990221888,0.2977986131698331
0.0006985879746785249,0.3145787633428313
0.0007752597488629464,0.33297049414133134
0.000860346441668451,0.35350068820108543
0.0009547716114208065,0.37633708814665756
0.001059560179277617,0.40097670174473593
0.0011758495540521582,0.4259438997306816
0.0013049019780144017,0.4487595460311446
0.001448118227674533,0.4664671427451188
0.0016070528182616384,0.47667040306677927
0.0017834308769319094,0.47856151157717175
0.0019791668678535573,0.4732809360296873
0.002196385372416547,0.46336697325524867
0.002437444150122222,0.45168291489887835
0.002704959730463137,0.4404849026850385
0.0030018358135755923,0.4310275746309647
0.003331294787934677,0.42364477460422734
0.0036969127071950323,0.4180272283060995
0.00410265810582719,0.41351537078738687
0.004552935074866948,0.40937368181495387
0.00505263106533568,0.40502017281160857
0.005607169938205458,0.4001291069315956
0.006222570836730231,0.3945681946478926
0.006905513520162331,0.3882606863622776
0.007663410868007463,0.38111446315465214
0.008504489341802686,0.3730592224116374
0.009437878277775391,0.36410266926888696
0.010473708979594508,0.354314900329735
0.011623224686798541,0.34376144096207095
0.01289890261253308,0.332472494409602
0.014314589375234785,0.3204775314761191
0.015885651294280528,0.3078446600340908
0.01762914118095948,0.2946678977516504
0.01956398343517065,0.2810253672174384
0.021711179456945052,0.26696867516407047
0.02409403560239527,0.25255325554033653
0.026738416158399492,0.2378625066739198
0.029673024081888724,0.22299399274057963
0.032929712550971546,0.20803221261039065
0.036543830709572546,0.1930468057841072
0.040554607358408275,0.17811443103385083
0.04500557675700498,0.16333039065759603
0.0499450511585514,0.1487945747446423
0.05542664520663107,0.13459308924516042
0.06150985788580504,0.12080006078921574
0.06826071834272393,0.10749389434977336
0.0757525025877192,0.09476301578175599
0.08406652885618333,0.08269212478227761
0.09329304026284696,0.07134670619578853
0.10353218432956637,0.060775132164987165
0.11489510001873086,0.05102384066418372
0.1275051240713013,0.04214391116261841
0.1414991297434576,0.03417831863672361
0.15702901247293774,0.02714341647126095
0.17426333860096507,0.021025725096181065
0.19338917504552322,0.015797754475635722
0.21461411978584058,0.011435497892187306
0.23816855519761607,0.007918673572775642
0.2643081486974108,0.0052125519010103455
0.29331662783900486,0.0032475794931861083
0.32550885998350565,0.001914173710524884
0.36123426997094304,0.0010771977605062866
0.40088063288984643,0.0006012024043996676
0.4448782831127585,0.00037338885954278064
0.4937047852839004,0.0003159610931418528
0.5478901179593945,0.00038667248991679996
0.6080224261649427,0.0005707981808354728
0.67475440531107,0.0008687089967625719
0.748810385759003,0.00128265352049059
0.8309941949353403,0.001805996971147312
0.9221978823334341,0.002417962994781885
1.0234114021054528,0.0030856252585794225
1.135733358343105,0.003771878984831142
1.2603829296797273,0.0044447636275094585
1.3987131026472386,0.0050825432442316585
1.552225357427048,0.005671922951282277
1.7225859653987874,0.006201899739065872
1.9116440753857036,0.006658851068981018
2.121451784910632,0.007026812127528632
2.35428641432242,0.0072920506068321
2.612675225563332,0.007447524713506827
2.8994228538828812,0.007493605088917208
3.2176417502507353,0.007435245003527915
3.5707859649004625,0.00727869879384027
3.9626886387014784,0.007030495031135998
4.397603609302721,0.006698721660117509
4.880251583654434,0.006294621977630396
5.415871378079476,0.0058326842282613355
6.010276782070388,0.005329108301726964
6.669919663030129,0.004799898724245579
7.401959996915652,0.0042597898925228975
8.214343584919439,0.0037221708340637815
9.115888299750837,0.0031992950555485107
10.11637979766207,0.0027020630454887254
11.226677735108158,0.0022393446656214983
12.458833642950081,0.0018174137637622834
13.826221737646593,0.0014400475543174054
15.343684089300131,0.0011092798133358359
17.02769172225898,0.000826235993400015
18.896523396912116,0.000591410595868208
20.970464013232306,0.0004042067900801133
23.27202478960412,0.0002621464356498695
25.826187606826746,0.0001604131123295856
28.66067616948256,9.21570778912105e-05
31.80625692794119,4.949632123650835e-05
35.297073027306574,2.476519303013785e-05
39.17101490809261,1.150999362182696e-05
43.47013158125035,4.957273045940838e-06
48.241087041653735,1.9747190117062204e-06
53.535666774107185,7.264046882263717e-07
59.411339849650396,2.464368452319147e-07
65.93188271333541,7.702501612849579e-08
73.16807143427206,2.2160820088902224e-08
81.19844993184009,5.8649457414417826e-09
90.11018251665037,1.4269787280894654e-09
100.0,3.190378861659664e-10
