tau,gamma,gamma_lo,gamma_hi
1e-07,-1.0015336748081152e-06,-0.0001006414467615446,0.0001231320291261745
1.1097524964120721e-07,-4.994619397775942e-06,-0.0005142712566674908,0.0006282815318245895
1.2315506032928263e-07,-1.6184280646646587e-05,-0.001771473706603656,0.002156631900896049
1.3667163564620074e-07,-3.274304537040606e-05,-0.0041969783097309645,0.0050682025012385706
1.5167168884709241e-07,-3.538593173536387e-05,-0.007140013578164481,0.008474443379237487
1.6831803533309585e-07,1.949107834301194e-06,-0.009425278605431152,0.010845147869636106
1.867913599020781e-07,8.047825280455444e-05,-0.010690142165419381,0.01179636316379183
2.0729217795953698e-07,0.0001764271020850524,-0.01133855213942756,0.01202956060228828
2.300430119772917e-07,0.000269444805376726,-0.011713296558762779,0.012111333255036497
2.5529080682395163e-07,0.0003487775566313773,-0.011848947230650456,0.0121300600930473
2.833096101839324e-07,0.00041139973542091856,-0.011708250692209156,0.012067752022546773
3.1440354715915e-07,0.0004609934449430314,-0.0114056008705546,0.012086171733170038
3.489101213406774e-07,0.0005008064628051124,-0.011052750027730861,0.012278782209455595
3.872038781812557e-07,0.0005321961400515828,-0.010686085496319699,0.012458674688388231
4.2970047043208437e-07,0.0005555386459902326,-0.010293837932696975,0.012331242265735867
4.768611697714474e-07,0.0005777226738453178,-0.009933945644014612,0.011893336802177579
5.291978735958437e-07,0.0006105227972352859,-0.00971056870409692,0.011366048226642953
5.872786613189477e-07,0.0006658836436923766,-0.009674512997687705,0.01097191842895212
6.517339604882421e-07,0.000752240191318286,-0.00980171841544376,0.010878679660090661
7.232633896483533e-07,0.0008652398507197925,-0.009985316441102144,0.011083112495045948
8.026433522257174e-07,0.0009846141154794864,-0.0100567130673519,0.011398400491594749
8.907354638610439e-07,0.001097534109844727,-0.00991235591442101,0.011628757131560905
9.884959046625586e-07,0.001214184489135307,-0.009652105671802289,0.011713830715254595
1.096985797892384e-06,0.0013411843697303336,-0.009399284294336676,0.0116413166641814
1.217382727739662e-06,0.001460734623261574,-0.00918330763069529,0.011458090433029621
1.3509935211980278e-06,0.0015501840371198992,-0.008944007805601607,0.011235836630524436
1.499268432786047e-06,0.0016347181266284274,-0.008609670639208731,0.011108421133644462
1.6638168860761274e-06,0.0017648922914417235,-0.008128835858293486,0.011205344655014512
1.8464249428955464e-06,0.0019402196307184323,-0.007547955120569585,0.011452576526222
2.049074689815846e-06,0.002098958696661846,-0.0070280354543188674,0.011581546709759798
2.2739657523579273e-06,0.002200140879139028,-0.006672900706271939,0.011460034287567814
2.523539170434766e-06,0.002262980279001477,-0.006490400038796905,0.011268558419545384
2.800503894183631e-06,0.002320307139458917,-0.006448871301605126,0.011208368523237163
3.107866187782014e-06,0.0023985280680480854,-0.006531500212570631,0.011347394130603755
3.4489622604057595e-06,0.0025087888581086914,-0.0066954019804730276,0.01163515850224725
3.827494478516315e-06,0.002650395316769303,-0.006839688350012533,0.011976457984352883
4.247571552536894e-06,0.0028096599269150763,-0.006838747580020197,0.012273667410378579
4.713753134116729e-06,0.002971632964487778,-0.006687324958943631,0.012567680219792878
5.2310993080562585e-06,0.00311947850526098,-0.006478247135581178,0.012965629661261333
5.805225516094895e-06,0.003252184155259902,-0.0062763932884366555,0.013412059737849343
6.44236350872137e-06,0.0033861271387165704,-0.006105411704222116,0.013669739974486863
7.149428986597577e-06,0.003528197614115624,-0.0059818434692644525,0.013638575092127672
7.934096665797492e-06,0.0036722372726268895,-0.0059530995867344925,0.013571827992949427
8.804883581643465e-06,0.0038079443416025034,-0.006019602045179756,0.013723433055888738
9.771241535346501e-06,0.0039482218963172696,-0.006086976424178792,0.014123076968181594
1.0843659686896109e-05,0.004104659422780153,-0.006044315972167159,0.014656303215222424
1.2033778407775906e-05,0.004278881999722198,-0.005923315478654144,0.015249117175950212
1.3354515629298974e-05,0.0044555263664595056,-0.005822951127910104,0.01584129911269716
1.48202070579886e-05,0.004622781782450284,-0.005746185664142034,0.016385151998601077
1.6446761779946626e-05,0.0047750981128472265,-0.005599007788781796,0.016820981670389427
1.8251834943190462e-05,0.0049284343516860386,-0.005331319668278954,0.01711841033129739
2.0255019392306664e-05,0.005126448631150245,-0.005000775985175824,0.017320779659900653
2.2478058335487252e-05,0.005389762395760289,-0.00467904982097373,0.017505512712057303
2.4945081352303165e-05,0.005701593408472369,-0.004430397957543263,0.017842815009336335
2.7682866303920665e-05,0.00603450623537148,-0.004291383268457083,0.01845836779749816
3.072112998861759e-05,0.006405261048940615,-0.0042735250883999265,0.01937737315979673
3.409285069746814e-05,0.006844071557935365,-0.0043830101292423665,0.020505699807530746
3.783462617131933e-05,0.007386816703725102,-0.00464770596355038,0.021708352460739024
4.1987070844439056e-05,0.008061028359957893,-0.005072900432449256,0.022867102386853477
4.659525668664687e-05,0.00890275028792603,-0.005542167399663237,0.024177238640211023
5.170920242896755e-05,0.009948976441556944,-0.0058359501854207034,0.026119073394411486
5.7384416483024044e-05,0.011237160409728776,-0.005905635151593872,0.029009860024910298
6.368249944718586e-05,0.012803953352358807,-0.005961651545281939,0.03283011954006887
7.067181273927492e-05,0.014706281828252891,-0.006112146154308875,0.03742803753147981
7.842822061337681e-05,0.017053555315357027,-0.006147257268312701,0.04266868417163954
8.703591361485166e-05,0.01996977624475415,-0.005800661646423264,0.0484845400509575
9.658832241158708e-05,0.023610902029424712,-0.005124476960850122,0.05514119571808899
0.00010718913192051276,0.028156438931421005,-0.004389712209105334,0.06305757817689127
0.00011895340673703195,0.03391975534018094,-0.003898103715915101,0.0728712632999109
0.0001320088400831418,0.041252969091984816,-0.003810412159954409,0.0851566483667478
0.00014649713983072864,0.05049817962608652,-0.0036732240476511167,0.10018325880186185
0.0001625755666443795,0.06188535945636245,-0.002256397897313757,0.11772697607355524
0.00018041864093920718,0.0758168432083843,0.0019460974491217564,0.13786789981570557
0.00020022003718155845,0.09278700384044725,0.01044895151433932,0.16117719453781837
0.0002221946860939524,0.11306756001919602,0.024430207151106366,0.18823884637015637
0.0002465811075822604,0.13633166987923406,0.04383189925704145,0.21932500119562467
0.0002736439997074672,0.16171301014286385,0.06771522907134399,0.2534596466747672
0.00030367711180354605,0.1884974637074423,0.09417259074364219,0.2883548150619254
0.00033700643292719284,0.21565740918684412,0.12062013572516177,0.3210956031815537
0.0003739937302478798,0.24297555115619843,0.14591098004450123,0.35289355685266677
0.0004150404757850477,0.27015575338449693,0.1696511189546495,0.38711640160000316
0.00046059220411451084,0.29672317609173965,0.1921010595198951,0.42391210374072075
0.0005111433483440171,0.3216756563219679,0.21365043235491818,0.4586770241625403
0.0005672426068491978,0.34415811008110436,0.23434611105886363,0.48755713769688686
0.0006294988990221888,0.36451813076687245,0.25400901458880143,0.511312149657176
0.0006985879746785249,0.38263861185221915,0.2718523431073242,0.5308747087259811
0.0007752597488629464,0.39866095152133835,0.2875772694444309,0.5467737843644388
0.000860346441668451,0.4119483645167687,0.30075634822651,0.5579800466821184
0.0009547716114208065,0.4229551655156857,0.3124421931659249,0.5651853477920395
0.001059560179277617,0.4319670681306319,0.3235010067645525,0.5694273095640572
0.0011758495540521582,0.4391853105908131,0.3331388626651497,0.5721968342133223
0.0013049019780144017,0.444473203464542,0.3388917351077138,0.5749617505623476
0.001448118227674533,0.44760831116359634,0.3396879310738381,0.5777032768814614
0.0016070528182616384,0.4491625528083219,0.33747466036982454,0.5795471444753748
0.0017834308769319094,0.4490786334840281,0.33411384685031253,0.5786678824364577
0.0019791668678535573,0.44786622073472415,0.33126380888174034,0.5748289332280041
0.002196385372416547,0.4452597394369195,0.32917977443584434,0.5677976678664892
0.002437444150122222,0.44182542349320064,0.3275307181463995,0.5598317369339931
0.002704959730463137,0.4375785786310603,0.32535445975855826,0.5528964997515451
0.0030018358135755923,0.4327109836190389,0.32293168841611686,0.5477433869860205
0.003331294787934677,0.4270765938039707,0.3209522407138688,0.5434537051546008
0.0036969127071950323,0.4206016231399369,0.31920377985614534,0.5386951333889431
0.00410265810582719,0.4136338393320085,0.3164815895404389,0.5325024110399991
0.004552935074866948,0.40619332115299317,0.31130532201725936,0.5245798701766279
0.00505263106533568,0.39892971148725825,0.30328731887429966,0.516769511908608
0.005607169938205458,0.3917475812516631,0.2927469126803933,0.5094059495011667
0.006222570836730231,0.384913999558957,0.2823383196658288,0.5014986972430114
0.006905513520162331,0.3779852593520443,0.2739569335511587,0.49114572208362617
0.007663410868007463,0.37105018886272056,0.26699579708718857,0.4795814560381262
0.008504489341802686,0.3639558690629133,0.2594412714209326,0.4693807705517069
0.009437878277775391,0.3570318649379777,0.25144380116131176,0.46339033112332517
0.010473708979594508,0.3506788103978509,0.24493914111516732,0.4630721255701496
0.011623224686798541,0.344630338039245,0.24082165248792511,0.4649228832212945
0.01289890261253308,0.33831080563451327,0.23844587840675993,0.46131395719316753
0.014314589375234785,0.33099674078516145,0.23586100735236526,0.44911093986952033
0.015885651294280528,0.323096248681282,0.2307247170673893,0.4352636828357572
0.01762914118095948,0.31449298029205164,0.2212790811617596,0.42622131703469607
0.01956398343517065,0.3051213172742141,0.2087517461188672,0.4221088994837404
0.021711179456945052,0.29417131834873494,0.19483802786131663,0.41866375123334537
0.02409403560239527,0.28121406770779467,0.18023556230090648,0.41206436623323994
0.026738416158399492,0.2657099702341159,0.16454016986079745,0.3989550841832345
0.029673024081888724,0.24749239696767183,0.1470216569515018,0.37852866735607554
0.032929712550971546,0.22694949541834392,0.12719644883961628,0.35216011895599836
0.036543830709572546,0.20454033518138487,0.1050438678969076,0.32148357156530394
0.040554607358408275,0.18156274420646656,0.08184335111530153,0.2892402658355852
0.04500557675700498,0.1587069289026631,0.058941904297452656,0.2573167955844414
0.0499450511585514,0.13661026201186602,0.03813434206628974,0.22775762486033874
0.05542664520663107,0.11558863274756843,0.021050480708266556,0.20148667567680678
0.06150985788580504,0.09630617331002247,0.008695199377874491,0.17832447837805143
0.06826071834272393,0.07946158811412717,0.0014507864962329904,0.15739798097039465
0.0757525025877192,0.0652666710386959,-0.0020182619834453004,0.13800253827228617
0.08406652885618333,0.053716231621290904,-0.0038296805380804706,0.11991405098726954
0.09329304026284696,0.044446079488435805,-0.005104519618938631,0.103399028244667
0.10353218432956637,0.03703648388076545,-0.005862449802502187,0.08938930053917965
0.11489510001873086,0.031080589630007493,-0.005982257385640207,0.07808278004293005
0.1275051240713013,0.026353226556464958,-0.005639552066530542,0.06894263392130744
0.1414991297434576,0.02263428077913959,-0.005113114147657315,0.06124470878501134
0.15702901247293774,0.019687239913594518,-0.004710096926278988,0.054703919796199485
0.17426333860096507,0.017283450730767317,-0.004633887685972108,0.0492055028600965
0.19338917504552322,0.015283670546763987,-0.004861724106194939,0.04473031532931265
0.21461411978584058,0.01360343584231131,-0.005275373322804227,0.04120138600081166
0.23816855519761607,0.012176462912861284,-0.005845554944537142,0.03834779944351008
0.2643081486974108,0.010960039024076372,-0.006586701096727823,0.03583303483643576
0.29331662783900486,0.009928516293934623,-0.0074065152490498335,0.03359012462592136
0.32550885998350565,0.009091208341113663,-0.008059687746013715,0.03185638571048135
0.36123426997094304,0.008421496103894218,-0.008334139584125067,0.03058451059179457
0.40088063288984643,0.007863002356857496,-0.008165591257661966,0.029328377241329716
0.4448782831127585,0.00735807708730573,-0.007679343910104199,0.02772929363732236
0.4937047852839004,0.006904621950322825,-0.007306412994528941,0.026033876853289874
0.5478901179593945,0.006503542224619588,-0.007385189184945499,0.02457564016577648
0.6080224261649427,0.006136207201478758,-0.007709704397997217,0.023342007279900538
0.67475440531107,0.005772195609880554,-0.007807392684918437,0.022130500068248342
0.748810385759003,0.0054177314107504045,-0.007554363881841305,0.02100096882318413
0.8309941949353403,0.00510977445314582,-0.007158023567148969,0.020221904333726577
0.9221978823334341,0.004858246977033317,-0.006818607843156746,0.01978837699668637
1.0234114021054528,0.004645285647029911,-0.0066411702470485145,0.01938342026381996
1.135733358343105,0.004445322146564555,-0.00661723749010557,0.018818478532330696
1.2603829296797273,0.004251998725500993,-0.006654029647158342,0.01829680496270004
1.3987131026472386,0.00405521147159374,-0.006699723926071085,0.01795917500111687
1.552225357427048,0.0038483387062299645,-0.006863666977817564,0.017617070724599622
1.7225859653987874,0.003627974453566854,-0.007243476639470734,0.01701116074386588
1.9116440753857036,0.0034218800396443134,-0.007719867634480208,0.01630749968664568
2.121451784910632,0.003266741088842152,-0.008070013887114511,0.015882359858416194
2.35428641432242,0.003161828395803684,-0.008321470226900118,0.015811677669620553
2.612675225563332,0.0030736401652368553,-0.008710833732650487,0.015860269622842163
2.8994228538828812,0.002976601889936427,-0.009317801606446206,0.015821784824129933
3.2176417502507353,0.0028721206189204662,-0.009953013468846621,0.01565843329291297
3.5707859649004625,0.002767552782001531,-0.010374300427543335,0.015426504646229376
3.9626886387014784,0.0026774225864393225,-0.010442116469452374,0.015294931318293166
4.397603609302721,0.002605380567498273,-0.010138458635791733,0.01534458350610129
4.880251583654434,0.002542454161952345,-0.009697809875429935,0.015468832056878035
5.415871378079476,0.00246889854414913,-0.009394182156293257,0.015496459584150628
6.010276782070388,0.002372042716309451,-0.009294795635816682,0.015478635374318867
6.669919663030129,0.00224253193044784,-0.009306140077469587,0.015568903783170605
7.401959996915652,0.0020753475239518914,-0.009351839207806259,0.01573649797234689
8.214343584919439,0.0018737867561952433,-0.009404444930159853,0.01575034555074788
9.115888299750837,0.001648865882784967,-0.009434824101718553,0.015455379048580853
10.11637979766207,0.0014290526402208693,-0.009403409730197806,0.014905290656666398
11.226677735108158,0.0012316270308750628,-0.009252689473806159,0.014155613702234714
12.458833642950081,0.0010537023957254976,-0.008931874745450104,0.013205991180256147
13.826221737646593,0.0008779143977544075,-0.00828917866601704,0.011884603277306267
15.343684089300131,0.0006835829887086844,-0.007058018445417096,0.009870270825978335
17.02769172225898,0.00046228424159607467,-0.005075219199515604,0.006980869932365548
18.896523396912116,0.00024639338778848174,-0.0027979381869537184,0.0038145010647115574
20.970464013232306,9.536781502100066e-05,-0.0011002829278053212,0.0014938883296717305
23.27202478960412,2.5538534698139672e-05,-0.0002966737352974761,0.0004020925801020108
25.826187606826746,4.622467881862188e-06,-5.385143971335713e-05,7.293334903380685e-05
28.66067616948256,5.597736849601123e-07,-6.528954517928558e-06,8.839799461892821e-06
31.80625692794119,4.516112498626523e-08,-5.269900037394505e-07,7.134249374215798e-07
35.297073027306574,2.4231125607598053e-09,-2.8281011203261517e-08,3.828418548640641e-08
39.17101490809261,8.640342449171419e-11,-1.008523937254377e-09,1.3652180100413803e-09
43.47013158125035,2.0469720705446983e-12,-2.3893562151992123e-11,3.234395956295727e-11
48.241087041653735,3.22155733359303e-14,-3.760455086719104e-13,5.090392472481304e-13
53.535666774107185,3.368001751326377e-16,-3.931416890358441e-15,5.321810247610365e-15
59.411339849650396,2.338960859416308e-18,-2.730238932069096e-17,3.695819124921043e-17
65.93188271333541,1.0789826085726315e-20,-1.2594835918270986e-19,1.7049139841604967e-19
73.16807143427206,3.306324085472181e-23,-3.859434185331555e-22,5.22436558753061e-22
81.19844993184009,6.730004163737125e-26,-7.855857766956502e-25,1.0634168001686807e-24
90.11018251665037,9.099634704071914e-29,-1.0621901301758602e-27,1.4378452953806773e-27
100.0,8.172806318624669e-32,-9.540025163032525e-31,1.2913959402237616e-30
