tau,gamma,gamma_lo,gamma_hi
1e-07,1.4587550603027562e-05,-2.2074303111708932e-05,6.5655073367595e-05
1.1097524964120721e-07,7.481936674334052e-05,-0.00011246819685415335,0.0003356070271959455
1.2315506032928263e-07,0.00026002534654039826,-0.00038469263598094955,0.001156978806163506
1.3667163564620074e-07,0.0006286487484499941,-0.0008967077135912532,0.0027461748870016823
1.5167168884709241e-07,0.0011148966102887158,-0.0014740728465532506,0.00468946770626808
1.6831803533309585e-07,0.0015790005133160525,-0.0018337088326920792,0.006228298487642611
1.867913599020781e-07,0.0019584004035091284,-0.0019385698336435808,0.007110514981383302
2.0729217795953698e-07,0.00226470714029551,-0.0019693150636713517,0.007570721003445935
2.300430119772917e-07,0.0025253721033889984,-0.0020091274329176413,0.007847433576101855
2.5529080682395163e-07,0.0027590931341090583,-0.0019612227828462968,0.008034773373857189
2.833096101839324e-07,0.0029744115099611316,-0.0017493666435290062,0.008161172027158551
3.1440354715915e-07,0.003179099631801945,-0.0014548277069834456,0.008285804423250434
3.489101213406774e-07,0.0033681994265624504,-0.0011896044652341742,0.008444437076788207
3.872038781812557e-07,0.0035303879942455993,-0.0009906712936635245,0.008633799719330837
4.2970047043208437e-07,0.0036493360584659114,-0.0008467777625735742,0.008820513843276328
4.768611697714474e-07,0.003737877314531324,-0.0007402506305902951,0.0090106012143514
5.291978735958437e-07,0.0038188917045770287,-0.0006570795655764604,0.009206335134090481
5.872786613189477e-07,0.0038972683824131595,-0.0005806842747711119,0.009343029663202551
6.517339604882421e-07,0.0039580051821708675,-0.0004933357533406003,0.009302745987320615
7.232633896483533e-07,0.003993146303663875,-0.0003902970409948368,0.009073046487178448
8.026433522257174e-07,0.004020397133711254,-0.0002891130538004565,0.008829244157853567
8.907354638610439e-07,0.004053592291748523,-0.0002118341921630551,0.00871913440045138
9.884959046625586e-07,0.004101893997403234,-0.00017520057818939356,0.008767114709812753
1.096985797892384e-06,0.004160816527444321,-0.00017958016806117206,0.008912220279693139
1.217382727739662e-06,0.004227026947813765,-0.0001928123487117498,0.009081777282849408
1.3509935211980278e-06,0.004292467876441649,-0.00018199632383807444,0.009200079819229328
1.499268432786047e-06,0.0043614183930698975,-0.00017036894675826806,0.00925616107060205
1.6638168860761274e-06,0.004441429126461891,-0.00021167858530468913,0.009281012726601688
1.8464249428955464e-06,0.004534813493260552,-0.00029288280377347357,0.009320179523106332
2.049074689815846e-06,0.0046398533641108025,-0.0003240124450419051,0.009429603903302334
2.2739657523579273e-06,0.004758943954524047,-0.00025162598482007467,0.009635977332720208
2.523539170434766e-06,0.004913626557946755,-0.000109930877591896,0.009939636039400112
2.800503894183631e-06,0.005120925026310734,5.3042872299617214e-05,0.010300658916368865
3.107866187782014e-06,0.005395424630429124,0.00022483563264802446,0.01066782070668876
3.4489622604057595e-06,0.005738314356303162,0.00043105670286283003,0.011006368556913943
3.827494478516315e-06,0.006150521311102363,0.0007361934293939722,0.011405917881124009
4.247571552536894e-06,0.00662080800151444,0.0012046700365638968,0.011976222401701847
4.713753134116729e-06,0.007143512072846127,0.0018175481995428664,0.012700591485408195
5.2310993080562585e-06,0.007705859240951038,0.0024629301796251953,0.013448222834047523
5.805225516094895e-06,0.008301468760561431,0.0030166774203017944,0.014187057621766473
6.44236350872137e-06,0.008927705278302308,0.0033731443627798992,0.015020770614639906
7.149428986597577e-06,0.00958204831298533,0.0035668999732374473,0.016001231934683172
7.934096665797492e-06,0.01027472111033193,0.003841606378369396,0.01706227566533794
8.804883581643465e-06,0.010997640498606777,0.004381780089475831,0.018108570373349342
9.771241535346501e-06,0.011744861433920072,0.005088129155352286,0.01917534558556182
1.0843659686896109e-05,0.012491324935783922,0.0057471465094120055,0.02032238368729294
1.2033778407775906e-05,0.013249882717815818,0.006299738758099771,0.02161133805551287
1.3354515629298974e-05,0.014025498454395146,0.006804873432760428,0.023011311379973722
1.48202070579886e-05,0.014816405133502379,0.0073668087982719605,0.024380050214256953
1.6446761779946626e-05,0.015592790299224385,0.008076569477732514,0.02548569517345892
1.8251834943190462e-05,0.016325638774305106,0.008922747265975861,0.02630439110156799
2.0255019392306664e-05,0.017001928766011882,0.009760430334649458,0.027090567242354247
2.2478058335487252e-05,0.017590194603542504,0.01043066433197164,0.027909371553950246
2.4945081352303165e-05,0.018081734730788276,0.010849261977818062,0.02848133555612562
2.7682866303920665e-05,0.018446799283468374,0.01096108546375492,0.028544462246929157
3.072112998861759e-05,0.018718084507666988,0.010806374486064689,0.02843224733987965
3.409285069746814e-05,0.01892623111583794,0.010484109450879029,0.02863232074864973
3.783462617131933e-05,0.01914367750601822,0.01021276917438322,0.02923494064503211
4.1987070844439056e-05,0.019437429470072293,0.01024212049345091,0.029964712939841914
4.659525668664687e-05,0.019835452069370738,0.01059657054112654,0.030595958876982503
5.170920242896755e-05,0.020329288526317622,0.011082192131907071,0.03105607529249715
5.7384416483024044e-05,0.020910106981403373,0.011575077250523633,0.031432999208035474
6.368249944718586e-05,0.021617338454331718,0.012125900931637311,0.03202416763211648
7.067181273927492e-05,0.022470202599863487,0.012755404082764696,0.0330042141138644
7.842822061337681e-05,0.02350098008764084,0.01335594228421962,0.03433254905155445
8.703591361485166e-05,0.02470270721248717,0.013793641741137057,0.035857819097748475
9.658832241158708e-05,0.026101147702256963,0.014141504690720988,0.037610841929330716
0.00010718913192051276,0.02769817689578353,0.014612906878081913,0.039674631037072576
0.00011895340673703195,0.0295456917804883,0.015519298565646612,0.0421708251382398
0.0001320088400831418,0.03168120680995046,0.017159447435811038,0.0451454994255008
0.00014649713983072864,0.034124581712721105,0.019529288287592837,0.04855347728936778
0.0001625755666443795,0.03684802532447087,0.022272893725058186,0.05224835443282463
0.00018041864093920718,0.039813286156368616,0.02511263337915364,0.056192450926181345
0.00020022003718155845,0.04301789534618176,0.0280137792580003,0.06057333437050363
0.0002221946860939524,0.046416080065729996,0.031001061888414966,0.06538632141386001
0.0002465811075822604,0.05001151700243294,0.03410059416584373,0.07031892163307249
0.0002736439997074672,0.05371658736791291,0.03717648751869235,0.07490111413692595
0.00030367711180354605,0.05750995374817227,0.039985354884285465,0.0792198463394158
0.00033700643292719284,0.0612898681961504,0.04223119139121163,0.08353399106170542
0.0003739937302478798,0.0650775061331325,0.044114957005234115,0.08810974776465832
0.0004150404757850477,0.06889489633661276,0.046179300332654626,0.0930765135847923
0.00046059220411451084,0.07276661676408455,0.04872651813085043,0.09861010902980266
0.0005111433483440171,0.07669645046145196,0.051668161816052105,0.10485318277371816
0.0005672426068491978,0.08055890065898817,0.05473229196431676,0.1112754240031245
0.0006294988990221888,0.08424076171912287,0.057661214536613103,0.1166004402970269
0.0006985879746785249,0.08757160754676481,0.06014700920600301,0.119929535883508
0.0007752597488629464,0.0907555635045334,0.06210417410689779,0.12256522453166815
0.000860346441668451,0.09398215835799177,0.06352201392256196,0.12629212291339434
0.0009547716114208065,0.09755168151461906,0.0648200277549642,0.13177446154496777
0.001059560179277617,0.10163721164119625,0.06650049290648455,0.13851829534926574
0.0011758495540521582,0.10638210293822313,0.0686973732989693,0.14596040554626127
0.0013049019780144017,0.11185757300505061,0.07116372386899157,0.1536843249430941
0.001448118227674533,0.1182157676569833,0.07377184096836083,0.16199033331045676
0.0016070528182616384,0.12586837978886364,0.07674792265443271,0.17226388912613722
0.0017834308769319094,0.1353744853493567,0.08027881389828391,0.1862482834019203
0.0019791668678535573,0.147728139287512,0.08462285775945771,0.20608439918626348
0.002196385372416547,0.16384248076191202,0.09040170799765505,0.2333285103636574
0.002437444150122222,0.18450615477870208,0.09939697722544744,0.26822618752945276
0.002704959730463137,0.20999734241176496,0.11372414656216706,0.3094830877140466
0.0030018358135755923,0.24031607302745187,0.13453613595029285,0.35517793142513554
0.003331294787934677,0.27466913427224193,0.16160215067959063,0.4024190673665523
0.0036969127071950323,0.3124204370627648,0.19344862914369565,0.4506105310484779
0.00410265810582719,0.3523185616611922,0.22704765669606541,0.5008214323772552
0.004552935074866948,0.3928110446648024,0.2604237218717277,0.5547377299106703
0.00505263106533568,0.43174127624202485,0.29285781013854917,0.6138001969488062
0.005607169938205458,0.4663270308553516,0.3224857992708555,0.6766149497420214
0.006222570836730231,0.4943023634429907,0.34521229371737094,0.737767326206074
0.006905513520162331,0.5111975290456777,0.35493258179919646,0.7865015167319815
0.007663410868007463,0.5114693411649014,0.34712067268662056,0.8100032112279976
0.008504489341802686,0.4882545752200067,0.3169198210712914,0.7931180958288423
0.009437878277775391,0.44036603006004005,0.26165614665764136,0.7305937148779906
0.010473708979594508,0.37212741136736627,0.18313774681057005,0.6274102901556194
0.011623224686798541,0.2911972599307213,0.09343123235038034,0.4995413024280409
0.01289890261253308,0.21034705957280286,0.01713508309119735,0.3760921627803915
0.014314589375234785,0.13943078662987232,-0.03014018406284577,0.2753508216364573
0.015885651294280528,0.08472839035261275,-0.050244875355796095,0.19874991958251867
0.01762914118095948,0.04840908865616503,-0.051359558416453635,0.1415109994989197
0.01956398343517065,0.026989255813601672,-0.04288596551336113,0.09983242912220638
0.021711179456945052,0.015383024428713433,-0.03231908842280703,0.07129974039783181
0.02409403560239527,0.009391433342990982,-0.02341009104609294,0.05219688149986054
0.026738416158399492,0.006166239090240002,-0.0174430677559936,0.0385748554079191
0.029673024081888724,0.004240415089368822,-0.013922229002174236,0.028286989424360625
0.032929712550971546,0.003054520135716935,-0.011517859698332127,0.020964904023430656
0.036543830709572546,0.002348045775489249,-0.009468131517495003,0.01624852803419681
0.040554607358408275,0.0019037569962980132,-0.007899263664948602,0.013251989314894573
0.04500557675700498,0.0015712229935834034,-0.006974524758731196,0.011178010815890128
0.0499450511585514,0.0012931396766512442,-0.006448520821865287,0.009648833160406024
0.05542664520663107,0.0010542039406986547,-0.006024827458085282,0.008501652024107242
0.06150985788580504,0.0008474838091434253,-0.005708960063810089,0.007618822755291948
0.06826071834272393,0.0006676782934320254,-0.005613666480355917,0.006897854412565972
0.0757525025877192,0.0005123890490988547,-0.00565992830856851,0.006289759281280278
0.08406652885618333,0.0003830552932326727,-0.005638170396195863,0.005790561423172159
0.09329304026284696,0.00027775189625478644,-0.005495628854797885,0.005413805168797858
0.10353218432956637,0.0001925242906413737,-0.005348075630790621,0.0051785167679607854
0.11489510001873086,0.00012079361435868042,-0.005255650935537166,0.005048845941800338
0.1275051240713013,5.4347457030776403e-05,-0.005163829932906373,0.004929750465068424
0.1414991297434576,-1.5160706313422984e-05,-0.005020512852950086,0.0047485940707279566
0.15702901247293774,-9.38606579415883e-05,-0.004879226668011795,0.004530157369776429
0.17426333860096507,-0.0001822687508114263,-0.004813328225696059,0.004326435492314092
0.19338917504552322,-0.00027023366377204486,-0.004849851712947156,0.004178686944553071
0.21461411978584058,-0.0003450093820799814,-0.004957885655496596,0.004094954689313734
0.23816855519761607,-0.00040931612187994267,-0.005055665988650924,0.004034448754379027
0.2643081486974108,-0.0004740063941825016,-0.0050390175874871785,0.003930991038892047
0.29331662783900486,-0.0005397013671060392,-0.004896679546007862,0.0037742475525489555
0.32550885998350565,-0.0005925918246893482,-0.0047204479078591,0.0036186802159112043
0.36123426997094304,-0.0006201708099158709,-0.004583989653034286,0.0034970843170210636
0.40088063288984643,-0.0006203180492162626,-0.0045126454169755765,0.00339985757138988
0.4448782831127585,-0.0006015882948336601,-0.004496594124893711,0.003305023761777679
0.4937047852839004,-0.0005889326405862404,-0.004518016981265012,0.003217781491697449
0.5478901179593945,-0.0006008912813845962,-0.004552919306613883,0.0031517259872513833
0.6080224261649427,-0.0006248385041075121,-0.004594006034368827,0.0031239638474137915
0.67475440531107,-0.0006319796059500903,-0.004637920240917888,0.0031421747795174607
0.748810385759003,-0.0006125578151958494,-0.004691531372868431,0.003195436176941896
0.8309941949353403,-0.0005750313483964623,-0.004756963537665012,0.0032599203541847687
0.9221978823334341,-0.0005294596932739911,-0.004809038956547385,0.003331592772505761
1.0234114021054528,-0.0004833440375377737,-0.004799731839665189,0.0034303340493417956
1.135733358343105,-0.00043671428971317245,-0.004708054784122389,0.0035597044888727144
1.2603829296797273,-0.0003838183362146987,-0.004582632743253009,0.003693193392763107
1.3987131026472386,-0.0003209017636439581,-0.004467091644221913,0.0037904102555719834
1.552225357427048,-0.00025600558822977805,-0.004371172897386908,0.003830513657132731
1.7225859653987874,-0.0001999040702290579,-0.004283392536615684,0.003808586112652035
1.9116440753857036,-0.00015474603962773928,-0.004215276788258782,0.0037674948908110275
2.121451784910632,-0.00011717925591076556,-0.004187177941744499,0.0037646515202156864
2.35428641432242,-8.421462878679153e-05,-0.0042026940835177395,0.00381807038210959
2.612675225563332,-5.477271562968244e-05,-0.004246291686453899,0.003910710468279948
2.8994228538828812,-2.6906227191875453e-05,-0.004299940788166465,0.004038597029835059
3.2176417502507353,2.0815449645818e-06,-0.004348922978923644,0.004216977244575163
3.5707859649004625,3.244652147155194e-05,-0.0043625955694124655,0.004409903282293055
3.9626886387014784,5.975597174090705e-05,-0.004300479763673793,0.004502809966283853
4.397603609302721,8.084583487522905e-05,-0.004131652234525906,0.004408604058295069
4.880251583654434,0.00010005236303360234,-0.00389368534403594,0.004211982169329138
5.415871378079476,0.00012388255175264172,-0.003649961980791716,0.004053337960566482
6.010276782070388,0.0001535569551529629,-0.0034554610248672033,0.003985512443319306
6.669919663030129,0.00018547073462683088,-0.0033462610600486485,0.003988980609410063
7.401959996915652,0.00021627384290021852,-0.0033160744831346872,0.0040483536873620754
8.214343584919439,0.0002431246643902801,-0.003325985141890685,0.004157990153425591
9.115888299750837,0.000264220720913965,-0.0033474083076238882,0.004268536563729103
10.11637979766207,0.00027854356430662174,-0.003380575610852376,0.004281523787404362
11.226677735108158,0.000284529297962626,-0.0034248131002856392,0.004158792691524577
12.458833642950081,0.0002803310745915101,-0.0034596464408426543,0.004005935435754349
13.826221737646593,0.000261317083134835,-0.0033941553832973594,0.0038579534914071987
15.343684089300131,0.00022134150319733342,-0.00304506811699008,0.003486394516338862
17.02769172225898,0.0001581078114565187,-0.0022703201770436074,0.0026313587424299342
18.896523396912116,8.679014720341902e-05,-0.0012762229120353702,0.0014909957421459937
20.970464013232306,3.405735906929883e-05,-0.0005064055985898943,0.0005939405394717721
23.27202478960412,9.174397732295682e-06,-0.00013707129867639853,0.00016103958646580848
25.826187606826746,1.6646566670050292e-06,-2.4920582775530306e-05,2.929909354314112e-05
28.66067616948256,2.0179051248355304e-07,-3.023346405178308e-06,3.5555840086609156e-06
31.80625692794119,1.6286616720664068e-08,-2.4409663619394206e-07,2.871021980392376e-07
35.297073027306574,8.740007981158866e-10,-1.3100896961193015e-08,1.540978992740086e-08
39.17101490809261,3.116724430437479e-11,-4.672090136862146e-10,5.495603514144852e-10
43.47013158125035,7.383991571591728e-13,-1.1069131754598817e-11,1.3020305515756948e-11
48.241087041653735,1.162117194119032e-14,-1.742112351289259e-13,2.049203880916425e-13
53.535666774107185,1.2149497280289786e-16,-1.8213193721614074e-15,2.142375929071176e-15
59.411339849650396,8.437421358309847e-19,-1.264847511038134e-17,1.487811707101469e-17
65.93188271333541,3.892257334428507e-21,-5.834857239344774e-20,6.863412924407637e-20
73.16807143427206,1.1927039301580148e-23,-1.7879750044427704e-22,2.103155451117733e-22
81.19844993184009,2.4277424624769085e-26,-3.639413898397914e-25,4.280962220784331e-25
90.11018251665037,3.282549326423919e-29,-4.920849840213368e-28,5.788287110231121e-28
100.0,2.9482107001829476e-32,-4.4196448979606026e-31,5.1987308231755716e-31
