tau,gamma,gamma_lo,gamma_hi
1e-07,3.532895799160441e-05,-8.714889906996151e-06,0.0001338631819814778
1.1097524964120721e-07,0.00018072209266598705,-4.4243627598995623e-05,0.0006832375030311478
1.2315506032928263e-07,0.0006241093363978876,-0.00015001254898236853,0.002346869732160336
1.3667163564620074e-07,0.0014871766557742695,-0.0003423323741815665,0.005523189301356138
1.5167168884709241e-07,0.002559335798556824,-0.0005353403863771262,0.009256347505138136
1.6831803533309585e-07,0.0034390579423135164,-0.0005964329867590651,0.011851868680008183
1.867913599020781e-07,0.003962393862901982,-0.0005092655864109519,0.012735343925739086
2.0729217795953698e-07,0.004195335834796803,-0.0003755701749530416,0.012440307410857582
2.300430119772917e-07,0.004227091460815673,-0.0002980291185780853,0.011581983038939698
2.5529080682395163e-07,0.00410667467666651,-0.00034442644113413985,0.010565010200829793
2.833096101839324e-07,0.003857895698313201,-0.0005303836590229099,0.009569815994493342
3.1440354715915e-07,0.003528069136405507,-0.0008038661133691165,0.008662536773604719
3.489101213406774e-07,0.0031506820148126478,-0.001112336367418731,0.00784624123450134
3.872038781812557e-07,0.0027383245936573103,-0.0014571292253831734,0.007122453905858783
4.2970047043208437e-07,0.0022891566993974662,-0.00187268800539477,0.006481083937170427
4.768611697714474e-07,0.001811620161218951,-0.0023992804595676888,0.00589043448973886
5.291978735958437e-07,0.0013282072462957408,-0.0030490592359903295,0.005308669232270511
5.872786613189477e-07,0.0008557554567297137,-0.0037606233052905344,0.004714065418558351
6.517339604882421e-07,0.0004128947869406008,-0.004392106397587213,0.004125708397375849
7.232633896483533e-07,3.016412071670309e-06,-0.004853196313011355,0.003579570149661188
8.026433522257174e-07,-0.0003774727166151762,-0.0051483299569264045,0.003141259646820818
8.907354638610439e-07,-0.0007246926947802604,-0.005314015459285579,0.002847273521564134
9.884959046625586e-07,-0.0010158125230983227,-0.005416201361164872,0.0026756190918969585
1.096985797892384e-06,-0.0012286145462912853,-0.005513545995283077,0.002565476685485422
1.217382727739662e-06,-0.001377807761275405,-0.005659925713312373,0.0024384371802324226
1.3509935211980278e-06,-0.0014864037059013227,-0.0058604394726142145,0.002234553118970891
1.499268432786047e-06,-0.0015552341857238265,-0.0060223012605842025,0.0019967614585409857
1.6638168860761274e-06,-0.0015615570197706058,-0.005999771306551209,0.0018464133274254545
1.8464249428955464e-06,-0.001490069728433891,-0.0057957758811337835,0.0018656689614651853
2.049074689815846e-06,-0.0013400369161278068,-0.005573375029529023,0.002076718930114332
2.2739657523579273e-06,-0.0011085684450424043,-0.0053915016292566285,0.0024604704975543282
2.523539170434766e-06,-0.0007956578744542324,-0.0051245746514655905,0.0029554314187550785
2.800503894183631e-06,-0.00040284211369133764,-0.004665903065012601,0.0034950635177503193
3.107866187782014e-06,4.8991434142211105e-05,-0.004121584245576882,0.004031350220964514
3.4489622604057595e-06,0.000537109414782204,-0.0036260893557599383,0.00454575884959632
3.827494478516315e-06,0.0010539665518188035,-0.0031396745620890154,0.005097733210699611
4.247571552536894e-06,0.0015976885709497739,-0.002528878163485587,0.005758753890175429
4.713753134116729e-06,0.002173938514118997,-0.0017746769150711853,0.006522408112931397
5.2310993080562585e-06,0.0027793300323396527,-0.0009899313344648843,0.007299370070050798
5.805225516094895e-06,0.0034052358873159264,-0.0002803020056409951,0.008036957650290126
6.44236350872137e-06,0.004028350597061388,0.0002833711776282492,0.008740829826369628
7.149428986597577e-06,0.004636719408829424,0.0007105985090543351,0.009439640281341151
7.934096665797492e-06,0.005241421588474542,0.0011067081576969016,0.010177301646361474
8.804883581643465e-06,0.005844195740398163,0.0015624025877994544,0.0109458851703204
9.771241535346501e-06,0.006433401240610836,0.0020656851818958368,0.011673147908280541
1.0843659686896109e-05,0.006980648569800581,0.002552057233252392,0.012252929396260628
1.2033778407775906e-05,0.0074925149402316656,0.002990291791864614,0.012690302877282247
1.3354515629298974e-05,0.007981259681675653,0.0033740383105703726,0.013047493362689167
1.48202070579886e-05,0.008463587704308155,0.0037260513634316873,0.013412720454232667
1.6446761779946626e-05,0.008946212011755396,0.004073843690564852,0.013880702142468351
1.8251834943190462e-05,0.009433539044315542,0.004411987407133374,0.014525600072060399
2.0255019392306664e-05,0.009938439436241037,0.004700333589699089,0.015400510905583068
2.2478058335487252e-05,0.010476844892804087,0.0049366081714048065,0.016485158339489426
2.4945081352303165e-05,0.011097742058612579,0.005217457637218379,0.017689778852105847
2.7682866303920665e-05,0.01184144909210894,0.00563218931583988,0.018945668164178777
3.072112998861759e-05,0.012752499981711378,0.006182206054547801,0.020377551579640486
3.409285069746814e-05,0.0138449371004368,0.006823554496936591,0.02210370022301673
3.783462617131933e-05,0.015122608166528504,0.0075683754672479795,0.024048139532459368
4.1987070844439056e-05,0.016562616732623027,0.008440882305736195,0.02598420056520679
4.659525668664687e-05,0.01818987073904766,0.009399862859156352,0.027938537341838668
5.170920242896755e-05,0.02005339541808896,0.010345381882587355,0.03018156869812103
5.7384416483024044e-05,0.02219199861118663,0.011331837595168516,0.032896430027303074
6.368249944718586e-05,0.02462210135371131,0.012652400038576213,0.03606318979289086
7.067181273927492e-05,0.027367100057992498,0.014579213080736307,0.03959403799701345
7.842822061337681e-05,0.030525100058242337,0.01717992429539949,0.04351087919083801
8.703591361485166e-05,0.034141900868415,0.020326307842352665,0.047854272256146385
9.658832241158708e-05,0.03820478987246996,0.023716115698733962,0.05280467627593748
0.00010718913192051276,0.04259988059493564,0.02701238816254019,0.0584744231322657
0.00011895340673703195,0.04734849615514946,0.03031557998642872,0.06491718061580841
0.0001320088400831418,0.05248629147775099,0.03390794381837552,0.07198150219897266
0.00014649713983072864,0.0581061156901233,0.03772486072233579,0.07954890537572641
0.0001625755666443795,0.064283331054001,0.04129964110465889,0.08756040053719877
0.00018041864093920718,0.07112320527143144,0.04463238496387533,0.09639250788024703
0.00020022003718155845,0.07883699453607843,0.04859648033001011,0.1070514850950298
0.0002221946860939524,0.08768069717788514,0.053817771399448176,0.12019914143234786
0.0002465811075822604,0.09820109343596879,0.059979315962480115,0.13571417557560128
0.0002736439997074672,0.11110970594785,0.0666505034299447,0.15349931563937214
0.00030367711180354605,0.12761116476858464,0.07473822382376238,0.17520035712185358
0.00033700643292719284,0.14890486922226026,0.08594392151340836,0.20293229548134514
0.0003739937302478798,0.17576795807829057,0.10180418219855762,0.2374305390805848
0.0004150404757850477,0.20809560787186115,0.123618994212518,0.27743459807963633
0.00046059220411451084,0.2455411090326352,0.15311015043133464,0.32171704558992376
0.0005111433483440171,0.28688259657741283,0.19158655997672353,0.369004655290093
0.0005672426068491978,0.3303393789580078,0.23751886018767493,0.41882150839542287
0.0006294988990221888,0.3733265635648185,0.2842745908021194,0.47153735999436436
0.0006985879746785249,0.41248913597469344,0.32484875392191676,0.5251210857881032
0.0007752597488629464,0.44538257599913833,0.35696762301775026,0.5737930663541885
0.000860346441668451,0.4686482821643579,0.37918164745626853,0.6089136473074214
0.0009547716114208065,0.4802511412372178,0.3897515787714607,0.6262964337297401
0.001059560179277617,0.4780751940433321,0.38591529347791115,0.623826773401474
0.0011758495540521582,0.4624437756686374,0.3684399200621254,0.6029945065424045
0.0013049019780144017,0.43602009241015677,0.3415140660350849,0.5681699189042965
0.001448118227674533,0.40122234237161497,0.3077389127705053,0.5228192767356266
0.0016070528182616384,0.3615216368418155,0.26870797728726303,0.47128317317360535
0.0017834308769319094,0.3193784795483865,0.226295051649926,0.4169324618143001
0.0019791668678535573,0.2779832095366093,0.18597386436043886,0.36483973356716015
0.002196385372416547,0.23948679442042178,0.15217079533855218,0.3183031439224496
0.002437444150122222,0.2048728941613371,0.12436580493592794,0.27726257291436834
0.002704959730463137,0.1744862581583125,0.1000872366944456,0.24022147149027806
0.0030018358135755923,0.14855127408690674,0.07914567691057699,0.20723114697692643
0.003331294787934677,0.1275332283807448,0.06357337155433529,0.17983166431256306
0.0036969127071950323,0.110950815266312,0.05394028568730999,0.1577635633003994
0.00410265810582719,0.09774517050531142,0.048915253309715426,0.1392686161556119
0.004552935074866948,0.08683003890533973,0.04644780853214376,0.12300859609398351
0.00505263106533568,0.07766367737601176,0.044334062902413506,0.10935653075604186
0.005607169938205458,0.06982025334656829,0.04123833033384294,0.09845941209492827
0.006222570836730231,0.0630437172282355,0.03758021250523425,0.08937134681585257
0.006905513520162331,0.05708581581651932,0.03420875478121914,0.08090089312252156
0.007663410868007463,0.051851314229315944,0.031321355512088714,0.07303019102082524
0.008504489341802686,0.047284463716459765,0.028648580688686927,0.06630283257551468
0.009437878277775391,0.04325862545146085,0.026042251655415093,0.060672264986317254
0.010473708979594508,0.039626182869051285,0.023569056345705552,0.05559969134458861
0.011623224686798541,0.0362557367043105,0.021278340569020275,0.05072401656125564
0.01289890261253308,0.03314914184598401,0.01919634601983889,0.046199810995445366
0.014314589375234785,0.030285332507129854,0.01724666325663275,0.04225490726510991
0.015885651294280528,0.027703976820574967,0.015336745821205415,0.03916492596703086
0.01762914118095948,0.025374607284753076,0.013456843035735095,0.03686687368637531
0.01956398343517065,0.02324939373601721,0.011857893941520956,0.03481260442872545
0.021711179456945052,0.02125042043472185,0.010759212433016824,0.03237091300958455
0.02409403560239527,0.019366715462290785,0.009975622556334414,0.02956130185057614
0.026738416158399492,0.017616900111593163,0.009101759426195188,0.026788400935318438
0.029673024081888724,0.015985647939533026,0.00797177782878585,0.02429800082822214
0.032929712550971546,0.0144489844656424,0.006687689269971772,0.022154057143310254
0.036543830709572546,0.01297935211116245,0.005365301042239484,0.02030471852075819
0.040554607358408275,0.011603927772295044,0.004105149943151593,0.018700424335709977
0.04500557675700498,0.010331566709298695,0.0029982837302754625,0.017259551248656618
0.0499450511585514,0.009180798916542738,0.002167965393176677,0.01592962624498921
0.05542664520663107,0.008147465651793761,0.001650831337725448,0.014653656850234497
0.06150985788580504,0.0072255898294473625,0.0012623684203540357,0.01343835838213811
0.06826071834272393,0.00640246591452922,0.0007711264023956551,0.012308350594648056
0.0757525025877192,0.005668096215831656,0.00015256842199305024,0.011304409514221044
0.08406652885618333,0.0050186927702940065,-0.00046585808814264367,0.010453790191400667
0.09329304026284696,0.004443609241615756,-0.0010098578160339915,0.00969471338404315
0.10353218432956637,0.003938667000046326,-0.0014683143247924432,0.00891473951408338
0.11489510001873086,0.0034995155072368306,-0.0018215727097411814,0.008084247377418747
0.1275051240713013,0.0031355552104281505,-0.0020109038254929002,0.007334373730649367
0.1414991297434576,0.0028443561536436453,-0.0020095592288812093,0.006777357930834003
0.15702901247293774,0.0026104034866215164,-0.0018934375148628054,0.006434364076126285
0.17426333860096507,0.002416104962269269,-0.0017630427356537944,0.006266586957024347
0.19338917504552322,0.0022628467209477926,-0.0016896886508257923,0.006218450947645532
0.21461411978584058,0.002154652148121471,-0.001707698000956549,0.006226405099658777
0.23816855519761607,0.0020754444720653873,-0.0017989579256988662,0.006248367482903393
0.2643081486974108,0.001997500127910206,-0.0019097164839015097,0.006251330005851952
0.29331662783900486,0.0019176623012310647,-0.0019987446227795118,0.006217265481612423
0.32550885998350565,0.0018594788014593684,-0.002047806573014324,0.006143609064989556
0.36123426997094304,0.0018251409760411837,-0.0020692959624788727,0.006033354034919589
0.40088063288984643,0.0017833012312346362,-0.00210743292824701,0.005911785656603544
0.4448782831127585,0.0017091671998754835,-0.0021711708191011724,0.005794646411708907
0.4937047852839004,0.0016231377255252677,-0.002199177095485083,0.005698124245940329
0.5478901179593945,0.001547892649777351,-0.0021413109638590525,0.005618207147475986
0.6080224261649427,0.0014688671034170453,-0.0020775879785550387,0.005538399754461877
0.67475440531107,0.0013527197537207285,-0.002137493603849835,0.005424240124299761
0.748810385759003,0.00119914590369457,-0.002334366604907373,0.0052489925634451
0.8309941949353403,0.0010378118246789543,-0.0025760491621870944,0.004997675258082073
0.9221978823334341,0.0008848688902163951,-0.002795523353333135,0.004685690295471877
1.0234114021054528,0.0007390024032967626,-0.0029788599094906147,0.004372170066632378
1.135733358343105,0.0005973925626282353,-0.0031284338829458886,0.0041008079640229445
1.2603829296797273,0.0004697268739326523,-0.0032480233418025637,0.0038951632965656346
1.3987131026472386,0.00036518602536544177,-0.0033279129654101994,0.003755097842312769
1.552225357427048,0.00028387485878581025,-0.003358125192197138,0.0036692552254117767
1.7225859653987874,0.00022337025613954802,-0.003340114902315674,0.0036181905209393085
1.9116440753857036,0.00018591827598646874,-0.003331953896403282,0.003592685940217689
2.121451784910632,0.00017971744157776855,-0.0033997400733531942,0.003591702873133073
2.35428641432242,0.00021378243723930957,-0.003518040421258545,0.003632556419159088
2.612675225563332,0.0002957162696359771,-0.003579495007436957,0.0037404371607278465
2.8994228538828812,0.00042411078438866134,-0.003523895259492568,0.003909743602127116
3.2176417502507353,0.0005837919393722598,-0.003376402626393228,0.004097007281246096
3.5707859649004625,0.0007603056348699158,-0.0031623388663617586,0.004264675450884706
3.9626886387014784,0.000944661681431553,-0.002884921773531586,0.004416092986079042
4.397603609302721,0.0011357053930206127,-0.002543952061112481,0.004563316117252006
4.880251583654434,0.0013456087001809428,-0.0021851922001341695,0.004726053497594519
5.415871378079476,0.0015833381371888598,-0.00186462742748821,0.0049175245886163834
6.010276782070388,0.0018394025322340131,-0.0015975145846159916,0.005158916968749869
6.669919663030129,0.002086679908625947,-0.0013733573581123045,0.005472653760213776
7.401959996915652,0.002311164450403599,-0.001187641071028055,0.005888163245401035
8.214343584919439,0.0025068602649971263,-0.0010539626100376435,0.006432451999073824
9.115888299750837,0.0026623141600331606,-0.0009849879977515976,0.007107582700780403
10.11637979766207,0.002755738028435562,-0.0009880566148501972,0.00786130215195477
11.226677735108158,0.0027620190359589725,-0.0010618012485848728,0.008556891760010708
12.458833642950081,0.0026692277402215556,-0.0011839405930708668,0.008941978259727153
13.826221737646593,0.0024460834943796097,-0.0012914323983108846,0.008682916207381089
15.343684089300131,0.0020445689200427287,-0.0012621253207146558,0.007530134545016798
17.02769172225898,0.0014479222339082514,-0.0009919609642180208,0.005444667740701592
18.896523396912116,0.000791164291802889,-0.0005725735082141892,0.0030057834072103324
20.970464013232306,0.00030980189175600396,-0.00022989804431218944,0.0011824242828547098
23.27202478960412,8.337856023831867e-05,-6.253871673931634e-05,0.00031885231997170674
25.826187606826746,1.512297068611942e-05,-1.1393375653883685e-05,5.787902726480856e-05
28.66067616948256,1.8329303650858184e-06,-1.383393158212298e-06,7.017338199169838e-06
31.80625692794119,1.4792745401791197e-07,-1.1172929219187269e-07,5.664127403815036e-07
35.297073027306574,7.93813830890611e-09,-5.997442150766909e-09,3.0396691214368986e-08
39.17101490809261,2.83074502219242e-10,-2.1389491375337057e-10,1.083971555789196e-09
43.47013158125035,6.706435059681763e-12,-5.0677198809655e-12,2.5681045279812322e-11
48.241087041653735,1.055479306607559e-13,-7.975890275825801e-14,4.0417760871771305e-13
53.535666774107185,1.103463079769804e-15,-8.338553572532248e-16,4.225527795916446e-15
59.411339849650396,7.663181579642314e-18,-5.7908649485771065e-18,2.934489276931441e-17
65.93188271333541,3.535093258321368e-20,-2.6713805762351087e-20,1.3537061092440122e-19
73.16807143427206,1.0832581376070853e-22,-8.185912135305305e-23,4.1481601542554247e-22
81.19844993184009,2.2049660973293795e-25,-1.6662383577849053e-25,8.443557952028604e-25
90.11018251665037,2.9813334962813836e-28,-2.252920199450324e-28,1.1416530429480074e-27
100.0,2.6776747015890767e-31,-2.0234528079774023e-31,1.0253718661023526e-30
