tau,gamma,gamma_lo,gamma_hi
1e-07,1.1138158457705925e-05,-2.2593698476106057e-05,7.713058109797547e-05
1.1097524964120721e-07,5.6992069114885675e-05,-0.00011512982005937211,0.00039310567980473186
1.2315506032928263e-07,0.0001969514126083107,-0.0003939223148583338,0.0013456029842158687
1.3667163564620074e-07,0.000470083113454516,-0.0009188963136613813,0.003141414415306296
1.5167168884709241e-07,0.0008121183769151572,-0.0015128583003494779,0.0051758815412491655
1.6831803533309585e-07,0.0011007836361345154,-0.0018867476402216715,0.006433146601649163
1.867913599020781e-07,0.001291488607813121,-0.0020003313545422946,0.006670894030706306
2.0729217795953698e-07,0.0014146954870084293,-0.0020402050818511563,0.006399299786280523
2.300430119772917e-07,0.001506289048482786,-0.002117814353740306,0.006085579834852181
2.5529080682395163e-07,0.0015837666453302202,-0.002182700417920152,0.00591937265509719
2.833096101839324e-07,0.0016502634419506366,-0.002163455574629978,0.005900731180029359
3.1440354715915e-07,0.0017051267813539394,-0.002064976054286518,0.005928676116188328
3.489101213406774e-07,0.0017434051797365652,-0.0019298537603800845,0.005903384288787896
3.872038781812557e-07,0.0017646808618981275,-0.0018204822406920524,0.005833995945060503
4.2970047043208437e-07,0.001765632984960168,-0.0017884676089379662,0.005773125673455905
4.768611697714474e-07,0.0017440460829671837,-0.0018353360862970857,0.005758054256835321
5.291978735958437e-07,0.0016986174271037943,-0.0019291444382658173,0.005790354750372888
5.872786613189477e-07,0.0016393702249766094,-0.0020503536509679362,0.005833864496245416
6.517339604882421e-07,0.0015872517066737896,-0.0021943996755705124,0.0058281172281411395
7.232633896483533e-07,0.0015495681505027466,-0.002350754254419449,0.005748500381551676
8.026433522257174e-07,0.0015168380008375255,-0.002490884937811783,0.005638303425721792
8.907354638610439e-07,0.0014768904453553023,-0.002574858892430061,0.0055259307721834015
9.884959046625586e-07,0.0014309763220151698,-0.002571522628581514,0.005404883907365222
1.096985797892384e-06,0.001380737822870062,-0.0024842786809924377,0.005260571717063737
1.217382727739662e-06,0.0013240896906294433,-0.0024091011340097676,0.005136098437554622
1.3509935211980278e-06,0.0012574637549059176,-0.0024487816596776694,0.0050760196616167165
1.499268432786047e-06,0.0011900533733079988,-0.0025651058800848325,0.005044975542223899
1.6638168860761274e-06,0.0011399975076544027,-0.002626003271697607,0.004956680447414853
1.8464249428955464e-06,0.0011147722652359586,-0.0026135916367322574,0.0048125201347212175
2.049074689815846e-06,0.0011106390907172075,-0.0026519965863288754,0.004719384750944525
2.2739657523579273e-06,0.0011238794438315019,-0.002823670517263893,0.004731242733529845
2.523539170434766e-06,0.0011585299058595637,-0.0030859647130773125,0.004797930508724202
2.800503894183631e-06,0.00122000010287978,-0.0033352842123997085,0.004863187971770653
3.107866187782014e-06,0.001313280931523617,-0.003458378496298769,0.004958971235247895
3.4489622604057595e-06,0.001439618331233677,-0.003370558623283648,0.005137436654784267
3.827494478516315e-06,0.001597127385087841,-0.0031075122572436524,0.005408095452014604
4.247571552536894e-06,0.001780225083406583,-0.002758765414808279,0.005732504340237882
4.713753134116729e-06,0.001989600141114392,-0.002369246325914096,0.0060612560171120385
5.2310993080562585e-06,0.002227950348155628,-0.001940986250326029,0.006342157791465095
5.805225516094895e-06,0.0025006601984810368,-0.0014699557507118835,0.006576950273175862
6.44236350872137e-06,0.0028109018454436888,-0.0009834684656367988,0.00683078521913255
7.149428986597577e-06,0.0031563145197734364,-0.0005393078013271125,0.007156456806044331
7.934096665797492e-06,0.0035291217341221143,-0.00023085490977550491,0.007578258314600159
8.804883581643465e-06,0.003924826583345419,-8.158536139192532e-05,0.00810737686010907
9.771241535346501e-06,0.004363403670126611,6.095528437512e-05,0.008780848896268076
1.0843659686896109e-05,0.004863529408676661,0.0003761606388489931,0.009610107363220266
1.2033778407775906e-05,0.005433824181211004,0.0008538229757945666,0.010546529006487965
1.3354515629298974e-05,0.006063583800995936,0.0013580242057238934,0.011486398669172946
1.48202070579886e-05,0.006753108916029332,0.001825327004532757,0.012394678494651165
1.6446761779946626e-05,0.0075030103444807435,0.002278547231767371,0.013294811700750026
1.8251834943190462e-05,0.008320854035322078,0.0027653792525891134,0.014246989030200071
2.0255019392306664e-05,0.009213692288283216,0.003326029223364927,0.015330261400030491
2.2478058335487252e-05,0.010175203738130124,0.00398511360185713,0.016552735648088387
2.4945081352303165e-05,0.011193715711292643,0.004744478476238541,0.017835982304011507
2.7682866303920665e-05,0.012250901211402753,0.00558337660824172,0.019092600201483442
3.072112998861759e-05,0.013378449014831484,0.006467257518558769,0.020402484309103287
3.409285069746814e-05,0.01460404987952094,0.007351179665797134,0.021888035602539324
3.783462617131933e-05,0.01596507541970049,0.008244820243910538,0.023656718677834587
4.1987070844439056e-05,0.017464208991122752,0.009184148880462503,0.025728461517505387
4.659525668664687e-05,0.01909747095489472,0.010233866571889962,0.028056586998226173
5.170920242896755e-05,0.020837771534903876,0.011460598550503067,0.030527015099181917
5.7384416483024044e-05,0.02269382179395132,0.01289559157579986,0.03314559002289687
6.368249944718586e-05,0.02473286477589262,0.014493432393062111,0.03609639486445127
7.067181273927492e-05,0.02699276618813454,0.016105760466123904,0.03946518486070277
7.842822061337681e-05,0.029493329352915786,0.017505083426028616,0.04315176862112794
8.703591361485166e-05,0.03222251069535323,0.018585366217262738,0.0470083105962723
9.658832241158708e-05,0.03528798607396818,0.01973609935062354,0.051250333694956234
0.00010718913192051276,0.03880821872443392,0.021417492921936076,0.05619531757383187
0.00011895340673703195,0.0429649122798497,0.023502801598494497,0.062130599311332475
0.0001320088400831418,0.04790992672293712,0.025444991438974943,0.06916531490352422
0.00014649713983072864,0.05381844622329341,0.027284979205736404,0.07738076543301656
0.0001625755666443795,0.06084654753550239,0.029875903327709518,0.08682660958929175
0.00018041864093920718,0.06923386396813833,0.0342418240756831,0.0978387792496565
0.00020022003718155845,0.07934075581439408,0.04121250311621844,0.11114403344646796
0.0002221946860939524,0.09153642465011383,0.05092562407182898,0.12723308381404286
0.0002465811075822604,0.10625115989143853,0.0623704726170013,0.14611306075103817
0.0002736439997074672,0.1238820397551724,0.07489737946468186,0.16782700392061978
0.00030367711180354605,0.1450643574016788,0.09036142465404307,0.19374982864676546
0.00033700643292719284,0.1700500670630191,0.11134090914621064,0.22501806110812056
0.0003739937302478798,0.1984839183525542,0.13763761003595015,0.2605488900482854
0.0004150404757850477,0.22892683632937771,0.166111258272637,0.29676257439431114
0.00046059220411451084,0.2603603340506137,0.1947705485864114,0.3318841729895109
0.0005111433483440171,0.2920150129187925,0.22320120062402396,0.3664368548882219
0.0005672426068491978,0.3233444510164278,0.25121758408112616,0.4013372175849758
0.0006294988990221888,0.3542577856983697,0.27824153649100786,0.43754843728458653
0.0006985879746785249,0.3839935166052982,0.30320097737573265,0.47533898820864096
0.0007752597488629464,0.4117977926808936,0.3259242495702213,0.5152820332805294
0.000860346441668451,0.43532576594616135,0.34547177741978896,0.5544510579400432
0.0009547716114208065,0.4519521255885309,0.3605428739742294,0.5846651579241163
0.001059560179277617,0.45808443319156816,0.368324988929943,0.5948534182936264
0.0011758495540521582,0.4526939610774581,0.3660790348213703,0.5849300237502633
0.0013049019780144017,0.43702866639683574,0.351430542189251,0.5645966465573007
0.001448118227674533,0.4121318888640417,0.32429159094427557,0.5387598854884192
0.0016070528182616384,0.37976400984756664,0.2888325628168129,0.5051510892593482
0.0017834308769319094,0.34115963877648614,0.24850881821653018,0.46052939665073656
0.0019791668678535573,0.2995151369921455,0.20616351206446681,0.4084360591361081
0.002196385372416547,0.25783853850503446,0.1644004465781921,0.354009601901214
0.002437444150122222,0.21917059362241767,0.12768989474131986,0.302331037853991
0.002704959730463137,0.18582157833913276,0.10036065898123395,0.25717616498903995
0.0030018358135755923,0.15781891453346067,0.08161201139984836,0.21931479773533633
0.003331294787934677,0.13411224761812643,0.06758764334216537,0.18800774001058715
0.0036969127071950323,0.11393567618190126,0.05619729694690585,0.16202893289868842
0.00410265810582719,0.09754072957628591,0.04798005503250635,0.14070765027315307
0.004552935074866948,0.08471778299865929,0.04295290316241352,0.12327159397996282
0.00505263106533568,0.07461883314901126,0.039434192871274976,0.10910370034112978
0.005607169938205458,0.06627564384722148,0.03587463326160691,0.0973972190116765
0.006222570836730231,0.0592316556586214,0.03230096955161241,0.0873778534098713
0.006905513520162331,0.053227444182908125,0.02925356246986635,0.07836826759249244
0.007663410868007463,0.04806128612385442,0.02676409218290335,0.07026335984248301
0.008504489341802686,0.043526324745094574,0.024497875836776824,0.06320857293774398
0.009437878277775391,0.03946193950799216,0.022293030099384156,0.05712147735162668
0.010473708979594508,0.035792368901221026,0.02021302816533637,0.05177914544132482
0.011623224686798541,0.032441469098843406,0.01828347834275084,0.047003698846494
0.01289890261253308,0.029415088203061112,0.016485835456834075,0.04285727544060103
0.014314589375234785,0.026682648467155807,0.014782878444072278,0.039329725540840674
0.015885651294280528,0.024263712389075834,0.013218098846117214,0.036366524241047735
0.01762914118095948,0.022117236490917458,0.011793131995991224,0.033772072474597625
0.01956398343517065,0.020183068461301436,0.010445231458391836,0.03131577612333882
0.021711179456945052,0.018376556781298934,0.009092633949005346,0.028803367044780384
0.02409403560239527,0.01667740866367857,0.007752150457809923,0.02635816389366305
0.026738416158399492,0.01510243139987118,0.006510022620150696,0.024242810450591182
0.029673024081888724,0.013657971495249879,0.005425609796204157,0.022495656303576247
0.032929712550971546,0.012357850706712843,0.004540065932900974,0.020958880233993792
0.036543830709572546,0.011195436719106175,0.003845772911104348,0.01947204281535649
0.040554607358408275,0.010181744405554033,0.0033027942410193216,0.0179962111294452
0.04500557675700498,0.009298682447039162,0.002847148467675686,0.016513641300506036
0.0499450511585514,0.008522913120067477,0.0024055690368022706,0.015074948425819018
0.05542664520663107,0.007818672460053635,0.0019217916426608193,0.013737266130982735
0.06150985788580504,0.007175731302990172,0.001402460368803953,0.012611343973307688
0.06826071834272393,0.006587295411607529,0.0008968860584809471,0.01177445087168563
0.0757525025877192,0.006048731740824223,0.00047540456930770364,0.011167181845601766
0.08406652885618333,0.005556104890992276,0.00020063748145060902,0.010652431410042643
0.09329304026284696,0.005105706301998478,2.743294745211366e-05,0.010179440053316008
0.10353218432956637,0.004704718344552903,-0.00017514949930917928,0.009803458178798805
0.11489510001873086,0.0043555019874533555,-0.00046652481801903457,0.009558266766168578
0.1275051240713013,0.0040655892442367425,-0.0007780628117932506,0.00942190649887166
0.1414991297434576,0.0038232782770584862,-0.0010224172432414004,0.009293255967926356
0.15702901247293774,0.00360060707910125,-0.0011612741818311264,0.009018264982255117
0.17426333860096507,0.003366450563856262,-0.0012071888064967484,0.008488775385928463
0.19338917504552322,0.0031225840382204237,-0.0012453839027034609,0.007831624364498668
0.21461411978584058,0.002885759555713897,-0.0013646966803115708,0.007259898438002631
0.23816855519761607,0.0026729103814898013,-0.0015527441537728944,0.006864021786725206
0.2643081486974108,0.0024942676632284996,-0.001731732682785756,0.006615073592484721
0.29331662783900486,0.0023367889089778134,-0.001897437320416652,0.00642726357916369
0.32550885998350565,0.0021733065317669207,-0.002122451660557656,0.0062063864835165804
0.36123426997094304,0.00199447689089503,-0.002417038090463554,0.0059369733856732745
0.40088063288984643,0.0018287602594611,-0.0026751699468636784,0.005729116162425346
0.4448782831127585,0.0016927218263231944,-0.0028160973375419836,0.0056575384871752465
0.4937047852839004,0.0015663979284764131,-0.002899776385290757,0.005671485701508037
0.5478901179593945,0.0014217623873031648,-0.003012283153025292,0.0056663833807535004
0.6080224261649427,0.0012669273024526356,-0.0031519140550537814,0.0055962635210858565
0.67475440531107,0.0011288714132456244,-0.0032455386522952973,0.005449218501950502
0.748810385759003,0.0010176102829657148,-0.0032271412537938156,0.005234428543615597
0.8309941949353403,0.0009279893323301056,-0.0030609401838348326,0.004975655785565201
0.9221978823334341,0.0008551740973543485,-0.002795211866733926,0.004715942695571289
1.0234114021054528,0.0008016792417482592,-0.0025703175031889973,0.00452453126842167
1.135733358343105,0.0007676242940719302,-0.002478760843110633,0.004422222623279029
1.2603829296797273,0.0007477097614244653,-0.00251013873052628,0.004366163092501076
1.3987131026472386,0.0007329488006892164,-0.002603885455250518,0.004316293734452914
1.552225357427048,0.0007148916941452009,-0.0026904093363999343,0.004306516876633206
1.7225859653987874,0.0006861617189650296,-0.0027206802517900745,0.0043718127743734925
1.9116440753857036,0.0006472768290928029,-0.002723230072532448,0.004469688648621827
2.121451784910632,0.0006041347091671486,-0.002756544163909076,0.004513309806181074
2.35428641432242,0.000565880698999162,-0.002823624577196399,0.0044949904122063185
2.612675225563332,0.0005429399576816077,-0.002874614197634175,0.004476240403893222
2.8994228538828812,0.0005359600781897104,-0.0028885749160931216,0.004477466432126472
3.2176417502507353,0.000533393855395265,-0.002898788896573235,0.0044518669635510285
3.5707859649004625,0.0005191183681334904,-0.0029298563996494253,0.004339851107821821
3.9626886387014784,0.0004788271007406282,-0.002974985949165571,0.004125136757896235
4.397603609302721,0.0004062576594889625,-0.0030206374080826675,0.0038271062546886107
4.880251583654434,0.00031615843696577013,-0.0030861140816542173,0.0035343410956202234
5.415871378079476,0.00022825785985006023,-0.0031917778310122566,0.003336705781177943
6.010276782070388,0.000146134948519773,-0.003326119048841019,0.003238039412756597
6.669919663030129,6.33921022391473e-05,-0.0034591488793471875,0.003190355933565108
7.401959996915652,-2.088326569822653e-05,-0.003606190457167674,0.0031894139539432164
8.214343584919439,-9.749768203349201e-05,-0.0038146638620463157,0.0032762098277042263
9.115888299750837,-0.00015812508759871141,-0.004065835784598609,0.003440823338130103
10.11637979766207,-0.00019813884310682618,-0.004245928260414126,0.003590764694648761
11.226677735108158,-0.00021656179362111513,-0.004263758393722135,0.003642623541928054
12.458833642950081,-0.00021760190175726222,-0.0041380911963116804,0.003586101324675433
13.826221737646593,-0.00020371034356990355,-0.0038632398267870963,0.003387524795041767
15.343684089300131,-0.00017281267466973715,-0.0033209178964044082,0.0029331032898413946
17.02769172225898,-0.00012357975038828072,-0.0024080843294683515,0.0021348312054491284
18.896523396912116,-6.788289422966532e-05,-0.0013341905891319824,0.0011848385284034708
20.970464013232306,-2.6646946548532096e-05,-0.000525926070908718,0.0004674003936903643
23.27202478960412,-7.179245154841294e-06,-0.00014195566980443423,0.0001261977302646292
25.826187606826746,-1.3027259575481615e-06,-2.5778646322824087e-05,2.2919964995555877e-05
28.66067616948256,-1.5792115014936602e-07,-3.125963802679196e-06,2.7794583462376403e-06
31.80625692794119,-1.2746031178548252e-08,-2.5233309211294224e-07,2.2436727413256248e-07
35.297073027306574,-6.840026335406915e-10,-1.3541898486092462e-08,1.2041165692782259e-08
39.17101490809261,-2.439187001488173e-11,-4.829209103091355e-10,4.2940438772397253e-10
43.47013158125035,-5.778806952180129e-13,-1.1441232160512994e-11,1.0173347233400767e-11
48.241087041653735,-9.09488147321715e-15,-1.80066594941627e-13,1.6011221505524182e-13
53.535666774107185,-9.508356893278018e-17,-1.8825312269835817e-15,1.6739157713760812e-15
59.411339849650396,-6.60323759814992e-19,-1.3073560591500817e-17,1.1624795892690133e-17
65.93188271333541,-3.046132148846776e-21,-6.030950988388168e-20,5.3626230129466475e-20
73.16807143427206,-9.334259019995971e-24,-1.84806374506944e-22,1.6432680910732598e-22
81.19844993184009,-1.8999834305070435e-26,-3.7617240083935747e-25,3.3448635549562855e-25
90.11018251665037,-2.5689666157569425e-29,-5.0862251672926975e-28,4.522588365976357e-28
100.0,-2.3073087760842403e-32,-4.56817615519998e-31,4.061947647684681e-31
