tau,gamma,sigma_gamma
1e-07,0.012583034850934816,0.06903010206991142
1.1097524964120721e-07,-0.0003973482974275466,0.06896512274211447
1.2315506032928263e-07,-0.01554321007067272,0.06901619921526721
1.3667163564620074e-07,-0.03226104645716066,0.0688476495759677
1.5167168884709241e-07,-0.049603715165335016,0.06816024823842459
1.6831803533309585e-07,-0.06627215803694808,0.0667878063745643
1.867913599020781e-07,-0.08067223021121328,0.06476270227980879
2.0729217795953698e-07,-0.09103611679772428,0.06231811326670019
2.300430119772917e-07,-0.09560939750561648,0.059818044622180114
2.5529080682395163e-07,-0.09289390483706406,0.05763808816195136
2.833096101839324e-07,-0.08192387681615831,0.056043648711805935
3.1440354715915e-07,-0.06253940522563761,0.05511444822284215
3.489101213406774e-07,-0.03560847261676825,0.0547426278167115
3.872038781812557e-07,-0.0031403435409154135,0.05469824272153377
4.2970047043208437e-07,0.03176587065647407,0.054728015661309755
4.768611697714474e-07,0.06517709663099369,0.05464399173084184
5.291978735958437e-07,0.09279115451669995,0.05437005267998973
5.872786613189477e-07,0.1105651335430724,0.05393741156368624
6.517339604882421e-07,0.11540903536030234,0.05344245950126439
7.232633896483533e-07,0.10580854409805296,0.052992072991446426
8.026433522257174e-07,0.08223447002624251,0.052660146431679926
8.907354638610439e-07,0.047229347477026895,0.052468557048500813
9.884959046625586e-07,0.005127795408403024,0.05239280558652596
1.096985797892384e-06,-0.03855180006084069,0.052383127782285814
1.217382727739662e-06,-0.07793452686901126,0.05238870054646818
1.3509935211980278e-06,-0.10768151906526069,0.052375073578923625
1.499268432786047e-06,-0.12378773067790472,0.05233046250006324
1.6638168860761274e-06,-0.1241524842115862,0.05226201196015941
1.8464249428955464e-06,-0.1088408240594887,0.052186503350226315
2.049074689815846e-06,-0.08001274156525429,0.05212062933828991
2.2739657523579273e-06,-0.04155275626022559,0.05207450148123034
2.523539170434766e-06,0.00152409778995799,0.05204970899399516
2.800503894183631e-06,0.04378667930332347,0.0520411628057056
3.107866187782014e-06,0.08011049246452195,0.05204082450603628
3.4489622604057595e-06,0.10630591103445308,0.052041346474488784
3.827494478516315e-06,0.11957356401777552,0.05203832124175821
4.247571552536894e-06,0.11874341968788515,0.05203076741201114
4.713753134116729e-06,0.10429225057543778,0.05202024288956772
5.2310993080562585e-06,0.07816812776856974,0.052009348978022674
5.805225516094895e-06,0.04347408081593729,0.052000362443223064
6.44236350872137e-06,0.004072396533496558,0.051994446673338704
7.149428986597577e-06,-0.035833902024558384,0.051991536340046635
7.934096665797492e-06,-0.0721013690062966,0.05199071527443846
8.804883581643465e-06,-0.10100653865394094,0.05199078763998818
9.771241535346501e-06,-0.11955995994519908,0.05199077069847441
1.0843659686896109e-05,-0.1257725095378861,0.051990154963482804
1.2033778407775906e-05,-0.11886617239096164,0.05198891249937354
1.3354515629298974e-05,-0.09940780778576253,0.051987331888864424
1.48202070579886e-05,-0.06933210974159842,0.05198579568002632
1.6446761779946626e-05,-0.03181807804501835,0.05198459920501318
1.8251834943190462e-05,0.009002820983154747,0.0519838624148936
2.0255019392306664e-05,0.04849992135772374,0.051983535852964696
2.2478058335487252e-05,0.08211456559328378,0.0519834674795852
2.4945081352303165e-05,0.10597162911966546,0.05198348596385116
2.7682866303920665e-05,0.11743233628022051,0.0519834646648795
3.072112998861759e-05,0.11548789953377347,0.05198334927057887
3.409285069746814e-05,0.1009144637135777,0.051983150835124704
3.783462617131933e-05,0.07615028953933511,0.05198291794768634
4.1987070844439056e-05,0.04490820749417368,0.051982704851087344
4.659525668664687e-05,0.011588619935098854,0.0519825483075215
5.170920242896755e-05,-0.019401888450409466,0.05198245866433217
5.7384416483024044e-05,-0.044304183433281685,0.05198242365481487
6.368249944718586e-05,-0.060520312013706334,0.05198241934459883
7.067181273927492e-05,-0.06690902458145698,0.051982421883140506
7.842822061337681e-05,-0.06383249284130443,0.05198241551045467
8.703591361485166e-05,-0.052972093906677176,0.051982395120622776
9.658832241158708e-05,-0.03696869423678639,0.05198236421581537
0.00010718913192051276,-0.018962909913237347,0.05198233048509844
0.00011895340673703195,-0.0021128784261743583,0.0519823013740992
0.0001320088400831418,0.010844538085731048,0.05198228124253339
0.00014649713983072864,0.01794207600489195,0.05198227061072545
0.0001625755666443795,0.018212953656067343,0.051982267076734215
0.00018041864093920718,0.011794255399989462,0.05198226701908354
0.00020022003718155845,-9.581035611705424e-05,0.051982267206146085
0.0002221946860939524,-0.01529965432521374,0.0519822657558901
0.0002465811075822604,-0.030971885699692114,0.05198226230764849
0.0002736439997074672,-0.04392930075020418,0.05198225759896649
0.00030367711180354605,-0.05108069300136453,0.05198225279331968
0.00033700643292719284,-0.049902852822272026,0.05198224888166454
0.0003739937302478798,-0.03890761589619429,0.05198224634886428
0.0004150404757850477,-0.018023874705431764,0.05198224513772691
0.00046059220411451084,0.011191051124880946,0.05198224482546716
0.0005111433483440171,0.04558430692416637,0.05198224487857386
0.0005672426068491978,0.08072098608449307,0.05198224486806977
0.0006294988990221888,0.11145779227007124,0.05198224458006563
0.0006985879746785249,0.1326950244041185,0.05198224401555662
0.0007752597488629464,0.14017750190015077,0.0519822433150508
0.000860346441668451,0.13119688751230818,0.05198224265844138
0.0009547716114208065,0.10506543279699421,0.05198224218296055
0.001059560179277617,0.06327953030418154,0.05198224194136056
0.0011758495540521582,0.009356587638265412,0.051982241902044056
0.0013049019780144017,-0.05160711337823609,0.05198224197854979
0.001448118227674533,-0.11356224915062696,0.05198224207112177
0.0016070528182616384,-0.17019852020760085,0.051982242105133386
0.0017834308769319094,-0.21559021006747892,0.05198224205667213
0.0019791668678535573,-0.24470907340727122,0.051982241960247075
0.002196385372416547,-0.2537581414344572,0.051982241897564195
0.002437444150122222,-0.24032303963514168,0.05198224196909791
0.002704959730463137,-0.20337421002778067,0.05198224225410687
0.0030018358135755923,-0.14317624951936558,0.051982242770065065
0.003331294787934677,-0.061164742904931124,0.051982243447351785
0.0036969127071950323,0.04016354744674855,0.051982244136303285
0.00410265810582719,0.15732899664076871,0.051982244657147604
0.004552935074866948,0.2859287010711222,0.05198224488784487
0.00505263106533568,0.4207127718653503,0.051982244863264984
0.005607169938205458,0.5557188664997366,0.05198224484034672
0.006222570836730231,0.68449428585504,0.05198224527943507
0.006905513520162331,0.8004102848780414,0.051982246712177535
0.007663410868007463,0.897046797814387,0.05198224951210148
0.008504489341802686,0.9686082235849023,0.051982253644214785
0.009437878277775391,1.0103279703865629,0.051982258518434146
0.010473708979594508,1.018829453373133,0.05198226307714177
0.011623224686798541,0.9924262936081956,0.051982266185062145
0.01289890261253308,0.9313546569884035,0.05198226726069095
0.014314589375234785,0.8379291966128601,0.051982266929385276
0.015885651294280528,0.7166009756914589,0.051982267359954946
0.01762914118095948,0.5738785193785425,0.051982271953071826
0.01956398343517065,0.41806367251362353,0.05198228423791351
0.021711179456945052,0.2587631947146676,0.05198230619093932
0.02409403560239527,0.10616955967845465,0.051982336607146
0.026738416158399492,-0.029844750117962615,0.05198237043392699
0.029673024081888724,-0.1407197688324291,0.0519823999040974
0.032929712550971546,-0.2201455239438057,0.0519824177448006
0.036543830709572546,-0.2647888514091066,0.05198242175815732
0.040554607358408275,-0.2746756603818077,0.05198241899092878
0.04500557675700498,-0.25314844366008815,0.05198242706779453
0.0499450511585514,-0.2063920904211476,0.05198247061423114
0.05542664520663107,-0.14259702089655946,0.05198257233591359
0.06150985788580504,-0.0708909105438782,0.05198274099499112
0.06826071834272393,-0.00020656521761375224,0.0519829612939795
0.0757525025877192,0.06174227912527708,0.05198319209847099
0.08406652885618333,0.10923284436938507,0.05198337808319938
0.09329304026284696,0.13896082396750808,0.05198347514086109
0.10353218432956637,0.15009718912655984,0.05198348266960915
0.11489510001873086,0.14401298250438055,0.05198346881618043
0.1275051240713013,0.1237616592174694,0.05198357179893148
0.1414991297434576,0.09343577287396004,0.051983965137000814
0.15702901247293774,0.05751534842040845,0.051984788167384985
0.17426333860096507,0.020302967045692788,0.051986062648425646
0.19338917504552322,-0.014495495379422463,0.05198763392110145
0.21461411978584058,-0.04402424851236786,0.051989180662374096
0.23816855519761607,-0.06637664193732751,0.05199032183013634
0.2643081486974108,-0.0805710110698824,0.05199081106861435
0.29331662783900486,-0.08644154287829364,0.05199075713104951
0.32550885998350565,-0.08448061078018998,0.051990765139768816
0.36123426997094304,-0.07566313793119672,0.05199188519428003
0.40088063288984643,-0.06127703314541666,0.051995303671109605
0.4448782831127585,-0.042777608158147684,0.05200182001279188
0.4937047852839004,-0.02167724114243086,0.05201128846867852
0.5478901179593945,0.0005266142081192804,0.052022310664532015
0.6080224261649427,0.022391157888581592,0.05203246898280227
0.67475440531107,0.04254963277148516,0.05203924065214484
0.748810385759003,0.05973181043478393,0.05204143431927592
0.8309941949353403,0.07279859023994284,0.05204063379709832
0.9221978823334341,0.08079839313076498,0.05204188185889342
1.0234114021054528,0.0830439581636333,0.052052877355106004
1.135733358343105,0.07920067095210026,0.05208141105140747
1.2603829296797273,0.06937306441274682,0.05213158374392239
1.3987131026472386,0.054173562426458766,0.05220026808845984
1.552225357427048,0.034754960677797264,0.05227584405418266
1.7225859653987874,0.012785397976080581,0.05234098139743927
1.9116440753857036,-0.009655265547186431,0.052379906466422696
2.121451784910632,-0.03027069847496744,0.05238838826697096
2.35428641432242,-0.04682891546546841,0.0523823999101692
2.612675225563332,-0.05749488742099551,0.05240026366314236
2.8994228538828812,-0.061153785007731276,0.05249422439404525
3.2176417502507353,-0.05764886643838674,0.05271124508847419
3.5707859649004625,-0.04786525970662536,0.053068494322921794
3.9626886387014784,-0.033621626854131836,0.05353418382679781
4.397603609302721,-0.017377727589345415,0.05402602837054208
4.880251583654434,-0.0018126075377296047,0.05443521653300197
5.415871378079476,0.010639316906036811,0.05467335974456684
6.010276782070388,0.018197868923063742,0.05472685266114651
6.669919663030129,0.020011227066389914,0.05469375140826051
7.401959996915652,0.016246632065642697,0.05477923010250114
8.214343584919439,0.00799102831507792,0.05523979196089386
9.115888299750837,-0.003005944220981993,0.05628973394822886
10.11637979766207,-0.014685212759437793,0.058005273997530124
11.226677735108158,-0.025052322747457945,0.06026965032495664
12.458833642950081,-0.03249931983100318,0.06278928480466182
13.826221737646593,-0.03601912091907489,0.06518087039153553
15.343684089300131,-0.035285148873219985,0.06709665934435355
17.02769172225898,-0.030600493926087213,0.06833759798398051
18.896523396912116,-0.022747739411906,0.06891064337012036
20.970464013232306,-0.012786427461498495,0.06901317172294445
23.27202478960412,-0.00184721658898096,0.06895879802594933
25.826187606826746,0.00903820051404991,0.0690793185084288
28.66067616948256,0.019049333723454742,0.06963937795662047
31.80625692794119,0.027627039332315917,0.07078724295677159
35.297073027306574,0.034471096469029405,0.07254652958062183
39.17101490809261,0.039502089432267296,0.07483919258532533
43.47013158125035,0.04280562057998133,0.07752389646178974
48.241087041653735,0.04457373224284736,0.0804352356272692
53.535666774107185,0.045053350490937505,0.08341461629837577
59.411339849650396,0.04450652805987948,0.08632942088627787
65.93188271333541,0.04318338337742805,0.08908127101116843
73.16807143427206,0.04130624874429581,0.09160627326545633
81.19844993184009,0.039062476945695784,0.09387051662051064
90.11018251665037,0.03660321206701128,0.09586353129803193
100.0,0.03404579636201259,0.09759154221939913
