tau,gamma,gamma_lo,gamma_hi,ftp,ftp_lo,ftp_hi
1e-07,4.071745387338274e-05,2.308555173670144e-06,0.0001270970760638954,0.0001098257321100557,3.244130898974732e-06,0.0006782371190048708
1.1097524964120721e-07,0.0002081423755330483,1.1794213353262994e-05,0.0006490278501361231,0.0005609580620565134,1.6812740512045422e-05,0.0034546068254257306
1.2315506032928263e-07,0.0007176170479293691,4.060902245208525e-05,0.0022320645978025954,0.0019302947843442208,5.9852383292250236e-05,0.011808014948206567
1.3667163564620074e-07,0.0017035868203958656,9.613876503022585e-05,0.005268022676502579,0.004562649267497242,0.00015228294649517139,0.027478010162378642
1.5167168884709241e-07,0.002909423689080303,0.00016351216396985068,0.00888485391639742,0.007726810060531063,0.0002956506227120908,0.04499921836522873
1.6831803533309585e-07,0.0038610469561662867,0.00021701088061723415,0.01152046910562689,0.010133905534903058,0.0004696091918050148,0.05555312795225604
1.867913599020781e-07,0.004388636954706193,0.0002525082811272415,0.012649028886361083,0.011456087023308848,0.0006303603687750102,0.058049393409850616
2.0729217795953698e-07,0.0046174178835454716,0.0002841687971704003,0.01276304119291076,0.01225784908926431,0.0007206322707588755,0.05848228609858801
2.300430119772917e-07,0.004688280796075978,0.0003159047804240925,0.012416937292517331,0.012949032666491746,0.0007363353090721003,0.060567801252685405
2.5529080682395163e-07,0.00467047450088122,0.0003329190611936511,0.011941697008936448,0.013471905794864904,0.0007401519331779461,0.06303444566430223
2.833096101839324e-07,0.004581896760808917,0.00032251966252874953,0.011456539569753102,0.013694172408517707,0.000776703198650848,0.06371878224942834
3.1440354715915e-07,0.004439104589947572,0.00028910192947447226,0.010984702611360501,0.013717427148607386,0.0008318860910917214,0.06227107766404933
3.489101213406774e-07,0.004255365247032088,0.00024375930757099235,0.010521865007416815,0.013679900466472949,0.0008889398268092628,0.05921586932394985
3.872038781812557e-07,0.0040667809569589685,0.00019944611028529916,0.010139630615817352,0.013653896292618126,0.0009833378597316254,0.0555706031051951
4.2970047043208437e-07,0.003905235119481304,0.00016728391122551706,0.00990150588942735,0.013631908293436381,0.0011527745389913072,0.052228217298429816
4.768611697714474e-07,0.003776831137773549,0.00015166016809602055,0.009765419937202723,0.013608731992832556,0.0013516400705563657,0.049553161625779524
5.291978735958437e-07,0.0036694437948124577,0.0001550204097548963,0.009619657654916512,0.013566668238858865,0.0014739844469063886,0.047545539224922516
5.872786613189477e-07,0.0035813467115891826,0.00018425791414330574,0.009437642322681608,0.013473823093683997,0.001467737157901691,0.04616466983828242
6.517339604882421e-07,0.0035246041317964025,0.00024673682054333917,0.00928139096404579,0.013297890669737508,0.0013551569583208994,0.045397466827225154
7.232633896483533e-07,0.003492510879928005,0.00032928369976396394,0.009142346909764256,0.013052952140072302,0.0012082125760399783,0.0449225358244674
8.026433522257174e-07,0.0034578671969231946,0.0003905705356710078,0.008918919833570085,0.012849161350298276,0.0011441526763191422,0.04411148069645586
8.907354638610439e-07,0.0034011746720070514,0.0004045131520927599,0.008558682421809386,0.01274767390548414,0.001236901148980622,0.042552548718061876
9.884959046625586e-07,0.0033457861101269435,0.00039078205899842084,0.008208920984450922,0.012726445902115741,0.001453787906889173,0.04067142598523248
1.096985797892384e-06,0.0033127811542172127,0.00037504845524697933,0.008025509099791004,0.012719644055676506,0.0017030882338140451,0.03907956836743032
1.217382727739662e-06,0.003292978608472344,0.0003525422387791558,0.008008412475417856,0.012731775741145148,0.001876648790315902,0.0381718473653951
1.3509935211980278e-06,0.0032601092833563746,0.0003056525139707181,0.008051673970139754,0.012783110959606773,0.001901919627941134,0.03802105517252924
1.499268432786047e-06,0.0032188603935526957,0.00024394830804841183,0.008078597373279279,0.012882373560009264,0.001860469783964067,0.03834775690285385
1.6638168860761274e-06,0.0031949948401892125,0.0002011303592246201,0.008051034601495975,0.013008541555032059,0.0019048652111907018,0.038675912114524896
1.8464249428955464e-06,0.0031954523882223077,0.00019929830295831375,0.007975569570958026,0.013137949976889482,0.001998495203366001,0.03887639292744056
2.049074689815846e-06,0.0032029841681850864,0.00023843323637768611,0.00789489998088734,0.013252598463748643,0.0019121676772906639,0.03918305383268201
2.2739657523579273e-06,0.0031965971436286557,0.00029421242421509574,0.007817542683554444,0.013319585178838448,0.001581232498606628,0.039541269703060926
2.523539170434766e-06,0.0031716702345496823,0.00031903515759183814,0.007720553421221855,0.013322518306890503,0.0012699117166326416,0.0394653631497739
2.800503894183631e-06,0.0031344198452255053,0.0002911627353421597,0.007591956270945269,0.013255809394723931,0.001220766425484062,0.0386331474630495
3.107866187782014e-06,0.003115905848220513,0.0002556476490413671,0.007506894697077275,0.013199354537251328,0.0013941070105617738,0.03761670021721592
3.4489622604057595e-06,0.0031365078650143173,0.0002643164016560418,0.007531921730136514,0.013217823853833292,0.0016315164920060606,0.037140420625052704
3.827494478516315e-06,0.00317935077664839,0.0003028544988077769,0.007643116142729817,0.01331805368246889,0.0018405827846800856,0.03738737872579756
4.247571552536894e-06,0.0032046872776843715,0.0003213642086177195,0.007751460557420306,0.013440012896151932,0.0019775068905198076,0.03803993696789424
4.713753134116729e-06,0.0032030347740879483,0.00030760834804547104,0.007812953681330573,0.01352471825670163,0.0020036239048982197,0.038621562095170946
5.2310993080562585e-06,0.0031920986656824818,0.00028470181281993343,0.007836558749503451,0.013518863470698469,0.0018880740973084413,0.03864480253074178
5.805225516094895e-06,0.003187908481271336,0.0002619679612287579,0.007874515309568508,0.01341270147118251,0.0016927499797885462,0.03808437583757766
6.44236350872137e-06,0.003201190026841443,0.00022645852621860208,0.008008751027657805,0.013262216282246464,0.001583590365919178,0.037472871627534744
7.149428986597577e-06,0.0032365989852322784,0.00017998609549278922,0.008233819969637254,0.013109235014913968,0.001638302248656094,0.03715620177974717
7.934096665797492e-06,0.003302295413218047,0.0001595583283535031,0.008425217395391704,0.012995912305549202,0.0017518713377165445,0.037098839693542655
8.804883581643465e-06,0.0033948155681737544,0.0001915788718467989,0.00848061874907643,0.012923061230620198,0.0017844916584516257,0.037177154455133136
9.771241535346501e-06,0.003500703553646652,0.0002486566968903782,0.008499122673174962,0.012884957622019877,0.0016945069115071167,0.03758789130316383
1.0843659686896109e-05,0.0036057879958821715,0.00028709834901745427,0.008651042712361704,0.012852319065339861,0.0015193668832992914,0.038376359699384834
1.2033778407775906e-05,0.0037324472610656967,0.00030174309888225345,0.009043982983940978,0.012828658363816053,0.0013709547348826853,0.03894912278666665
1.3354515629298974e-05,0.00391548198214819,0.00031642922952518533,0.009681231365109894,0.012824560789373109,0.001366980192336994,0.03843810161340503
1.48202070579886e-05,0.004162502318877552,0.00035396918810186697,0.010434506020508346,0.012861803071619918,0.0014759727298896067,0.03703077518278312
1.6446761779946626e-05,0.0044529142398460975,0.0004278360047729578,0.011083611321117128,0.012962806267629754,0.00154082452868031,0.0358853404904344
1.8251834943190462e-05,0.004786497868043781,0.0005367889463143644,0.011580797640194665,0.013119200662919304,0.0014935778856222715,0.035612221335459535
2.0255019392306664e-05,0.005200082445571789,0.0006625338810049227,0.012143213596422477,0.013303706998322375,0.0014193626622705279,0.035904862718246014
2.2478058335487252e-05,0.0057340038397018355,0.0007875720620780956,0.013040708000239107,0.013481856920739608,0.001405175064277376,0.036266736823397934
2.4945081352303165e-05,0.006422386944220904,0.0009105943779504574,0.014496094465382605,0.013667493755943061,0.0014593063220458811,0.0365492000813503
2.7682866303920665e-05,0.007292733946786511,0.0010683480379115834,0.01655062687103306,0.013859928661489817,0.0015544285208382962,0.03672480451792167
3.072112998861759e-05,0.008380804317216068,0.0013600632620441057,0.018925195670923062,0.014064717856752227,0.001670784675551691,0.03687312621447024
3.409285069746814e-05,0.009702969954034022,0.0018631049852578048,0.02120460048803025,0.014261429040696983,0.00178758797068279,0.03701645083145322
3.783462617131933e-05,0.011252917603044135,0.002484125207036308,0.02328525411549841,0.014453547087130748,0.0018721875772266222,0.03716590684275473
4.1987070844439056e-05,0.013000167312511987,0.00302137015626944,0.025321055092347618,0.014637549735763419,0.0018859114750126623,0.037275524156379504
4.659525668664687e-05,0.015002270073540545,0.00342983056455634,0.027720494772975918,0.014800183817570737,0.0018349118378281695,0.037317744514829373
5.170920242896755e-05,0.017379828986185723,0.003891622562721406,0.031028514694263966,0.014924685119046247,0.0017742924215848799,0.037330437263364186
5.7384416483024044e-05,0.02024882912079623,0.004782373431855723,0.03551030312010598,0.015019835024043792,0.0017543801795632784,0.03744540281776151
6.368249944718586e-05,0.02365745752354417,0.0065892626638086585,0.04096998397321767,0.01515989979954524,0.001799946449782937,0.03797665755880967
7.067181273927492e-05,0.027580046251143242,0.009391657838820046,0.04710454300519309,0.015367554080906407,0.001883818507192078,0.03907299815718878
7.842822061337681e-05,0.03190642103560039,0.012433580695474004,0.053717200880148495,0.015601964286570425,0.0019172116843512075,0.04062208342724482
8.703591361485166e-05,0.036457693601108516,0.014980205850974688,0.060536810817824284,0.01579204355079065,0.001852025983234645,0.04241233657466373
9.658832241158708e-05,0.0411572837802421,0.017337280205968374,0.06730654012363095,0.0159729363096445,0.0018135803915196866,0.04448983414297597
0.00010718913192051276,0.04592665846575041,0.02022704230156642,0.07375713693789288,0.016195945481974706,0.0019619414745395804,0.046817408104204705
0.00011895340673703195,0.050895042493436675,0.023750725281637464,0.08028774571162782,0.016464262288657043,0.002227240558484549,0.048956824906840564
0.0001320088400831418,0.056215443616862405,0.027389488494386924,0.0876012585679484,0.01672225581020936,0.0023664842598601628,0.05020872229376028
0.00014649713983072864,0.0619936736239449,0.030823325802269205,0.09607628437116833,0.016946602360288564,0.002287884254941993,0.05066878818194676
0.0001625755666443795,0.06819015956063952,0.033910555579489556,0.10552553301692327,0.0171692237608984,0.0021142549312146612,0.051319299378093194
0.00018041864093920718,0.0747533695115314,0.03607512494120465,0.11561144604640028,0.0174028217468992,0.001991123948920738,0.052672921846231034
0.00020022003718155845,0.08178075882050545,0.036210760231456585,0.12617941399901447,0.017651382694713627,0.002011966852897061,0.054340239704025566
0.0002221946860939524,0.08958558080304825,0.03409468905174049,0.13750481749033205,0.017875260643179593,0.002206278300056446,0.05583593893319405
0.0002465811075822604,0.09909852449972098,0.032104424723200214,0.15105738100377195,0.01805507885810016,0.0025220278561375884,0.0574055727675983
0.0002736439997074672,0.1113158164574176,0.03362508419126952,0.16853942204142147,0.018157661222202585,0.002858889812061001,0.05921030419752845
0.00030367711180354605,0.1270683355553257,0.041089853967933826,0.19140872570163106,0.01822336818732639,0.0031035337720856497,0.060626978146214275
0.00033700643292719284,0.1469140807835193,0.05578739016037628,0.22045296545830675,0.018296002692871127,0.0031543625863649826,0.0606322371624121
0.0003739937302478798,0.17162704791366726,0.07700863082557477,0.2560291075876461,0.01839328228875745,0.0030272997074433537,0.05936524021098507
0.0004150404757850477,0.20173189443834674,0.10249443770657284,0.29782080651129,0.01849661740085322,0.0028231136385820825,0.057988500745748385
0.00046059220411451084,0.23734028044569977,0.13145295530789947,0.34638634983621636,0.01858916704812643,0.002586675682881175,0.05729968126808344
0.0005111433483440171,0.27725264535641303,0.16440656763887176,0.40189648576035264,0.018689443275135227,0.002303718476351303,0.05743637761604073
0.0005672426068491978,0.31918568696764416,0.2011764660709988,0.4609306599729492,0.01880065600368153,0.002028944672461621,0.05804921864302194
0.0006294988990221888,0.3595082229599803,0.23919395769647017,0.5144643656515676,0.018950700183235605,0.0019670040095427035,0.05858910693589399
0.0006985879746785249,0.3942766646902859,0.2749430619069393,0.5541379824516204,0.01913619957340489,0.0022595782995201187,0.05864208516792622
0.0007752597488629464,0.4220013055331881,0.3059504318697911,0.5811534936258266,0.01937993015232883,0.002767079520219994,0.05855407403334858
0.000860346441668451,0.4412523753774449,0.32914803424349304,0.5993728170026172,0.01968407385762852,0.003223150082003379,0.0588009799953959
0.0009547716114208065,0.4518920863677899,0.3420010931767696,0.6116781331582972,0.02008595576325444,0.003467272547571184,0.05949893960569947
0.001059560179277617,0.45340300640228826,0.34167492285848483,0.6177479028730295,0.020598057197572166,0.00345558151515692,0.06041682367886966
0.0011758495540521582,0.44597900901478604,0.32833625938936734,0.6157068989072834,0.02118039502744282,0.003308355711788751,0.0614615110297419
0.0013049019780144017,0.4304679869584589,0.3053586989553828,0.6030582498597145,0.02174446643709988,0.0032677096749899356,0.06271453845129879
0.001448118227674533,0.40755423725490125,0.27688476521866645,0.5795064422045793,0.0222713563416116,0.003475813372328543,0.0642323959036873
0.0016070528182616384,0.37906078901364076,0.2481328442981909,0.5491948684499659,0.0228708747940009,0.0039043304824492235,0.06602401174699385
0.0017834308769319094,0.34581498643050596,0.2202688890948921,0.5135171079925429,0.023609745177052485,0.004427191687914046,0.06788720815951929
0.0019791668678535573,0.30918763129789817,0.1892848962211946,0.4706273927666459,0.024489140210671334,0.004854499454263583,0.06954795524495687
0.002196385372416547,0.27000737058259505,0.1514540981185557,0.41835100644848794,0.025445858851482702,0.0050463345717816025,0.07073718000242772
0.002437444150122222,0.2300475887130737,0.11071619898482242,0.3614826113490221,0.026484085154520724,0.005073832543929707,0.07174657109114976
0.002704959730463137,0.19130760284409565,0.07460342033757938,0.30714038257157705,0.027587235543559446,0.005102781636983281,0.07299569448013993
0.0030018358135755923,0.15530483092948003,0.04691595861158497,0.258098177313511,0.02875860588832321,0.005254594497595557,0.0748392927633834
0.003331294787934677,0.1235758562368585,0.028332142862407837,0.21421991963928172,0.02998797939750043,0.005544968663882892,0.07747062674838913
0.0036969127071950323,0.09665700133512445,0.017215778366460967,0.17524010956526978,0.03136230487253391,0.005796564424610349,0.08106483166999628
0.00410265810582719,0.07482413956482237,0.010779041777690469,0.1425408823672755,0.033035057827126665,0.005672465811443808,0.08572511696643688
0.004552935074866948,0.05773628397255827,0.006880274264183482,0.11647865324764357,0.0350349228643978,0.00502010070046914,0.09123196693479534
0.00505263106533568,0.04476295926389138,0.004467763055008471,0.09609923266587897,0.03724465065548758,0.004073985929037817,0.0970614432389782
0.005607169938205458,0.03514347661012405,0.0030539707319092594,0.07994069532567555,0.0395915800416484,0.00328491507268717,0.10294453359411766
0.006222570836730231,0.02807324675455372,0.002268436856285404,0.06684950091584774,0.04229976233568307,0.0032314989003076285,0.10955963074400821
0.006905513520162331,0.022866999021111865,0.0018277745357786692,0.056109681905665953,0.045530345155789735,0.004111363399141152,0.11730208607073063
0.007663410868007463,0.019005675349587206,0.0015721004323302119,0.04758190118919482,0.04920062415547507,0.00508467276701186,0.1254964288985774
0.008504489341802686,0.0161280733645678,0.0014180307331957557,0.041309070641109794,0.053098217675662286,0.0051923661051764824,0.13292874906346622
0.009437878277775391,0.013945875698586905,0.0012992112283997574,0.03665498567858916,0.05749800645417053,0.005176752032733004,0.14005907557857508
0.010473708979594508,0.01224534458403282,0.0011593792085184656,0.032575637799832656,0.06292297036813914,0.006887982252230625,0.14845748125614683
0.011623224686798541,0.010886157446697643,0.00100134926437298,0.028630473082056396,0.06954491965907231,0.010524693993355386,0.1589975835757121
0.01289890261253308,0.009817099438777557,0.0008886960846186751,0.025233783824290378,0.07701039075284336,0.014194302888717529,0.17138705106892738
0.014314589375234785,0.008991443362755548,0.0008493033615368678,0.022713690456795436,0.0850571624272576,0.01665892469819545,0.18506426726949393
0.015885651294280528,0.008361607668358318,0.0008374544811376521,0.020981750283966073,0.09380151211411884,0.018603642575778595,0.19968233910835775
0.01762914118095948,0.00787256014102374,0.0008116184686280459,0.019755532585765838,0.1032614612539708,0.02128845147924803,0.21437550938553346
0.01956398343517065,0.00749201270196536,0.0007969262886036949,0.018798986730638425,0.11327176398668388,0.025589785907667844,0.2279373152144401
0.021711179456945052,0.007190316498188997,0.0008267323976795757,0.017943294426412803,0.12337952285567581,0.03183670557898499,0.23910300990031677
0.02409403560239527,0.006950165474605106,0.0008654245429923195,0.01718517016153518,0.1335165859713696,0.03956899677854917,0.24894187983956406
0.026738416158399492,0.00675321272720999,0.0008404266055803743,0.016616987886097778,0.14357447750466368,0.047709599124801126,0.2594211308554485
0.029673024081888724,0.006584797201477043,0.0007394554875797876,0.016352058205602066,0.15369322945318223,0.055254290671720274,0.2720908088786322
0.032929712550971546,0.00643650423030642,0.0006138314786218635,0.01645740899251575,0.1638571061650736,0.06116198417292441,0.28732451848845314
0.036543830709572546,0.006312436895340456,0.0005173512822985479,0.016765347567634054,0.1737628930851337,0.06490362382461612,0.30405990761079743
0.040554607358408275,0.006239550441745611,0.00048684078181795125,0.016873720020283547,0.18280899481784801,0.06666156205799835,0.3200081262688537
0.04500557675700498,0.00622348077533282,0.0005182579826946733,0.01654774485297943,0.1905149944093038,0.06733073465932606,0.33376876658522636
0.0499450511585514,0.0062454130323634765,0.0005561763580567831,0.016008956660172845,0.19729046841145034,0.0688978098513948,0.3467452159138009
0.05542664520663107,0.0062678358359013085,0.0005608329779815552,0.015536913028953327,0.2033060868812602,0.07282471309642978,0.3597725735233952
0.06150985788580504,0.006272395021425416,0.0005686134369930741,0.015241886272743074,0.20871027583433188,0.07881256740975208,0.3720450797629384
0.06826071834272393,0.006246742970488869,0.000628403056847169,0.015114854302459802,0.21322646072572157,0.08560163521921202,0.3811939487656139
0.0757525025877192,0.006211604177379323,0.0007077904605334776,0.015184891045552026,0.217200579114473,0.09243257343419191,0.3865432076393482
0.08406652885618333,0.00619548799379126,0.0007279031919762953,0.015468099696602343,0.22092265300224628,0.09876577451433624,0.3881150523480936
0.09329304026284696,0.006204778394311566,0.0006840848096257764,0.015838216425870986,0.2242669504407766,0.10420496985896706,0.38663346295881157
0.10353218432956637,0.0062228335787139636,0.0006463099415592675,0.01605777241217071,0.22662632202948363,0.10838998439243824,0.3831764439357322
0.11489510001873086,0.006232216371935191,0.0006461310638975346,0.016093682338841793,0.22756233323564243,0.11165008604204132,0.3780643463817678
0.1275051240713013,0.006234504043150047,0.0006421955810307325,0.016221251745206437,0.22744592676837985,0.11524897378254825,0.37156584910926915
