tau,gamma,sigma_gamma
1.5915494309189534e-08,-34776.03576103535,741776.8840927583
1.7867812560421838e-08,-33800.40347424202,721094.1289308505
2.0059617344717335e-08,-32547.24551303454,699638.9533774913
2.252028594187271e-08,-31006.350034175197,677480.5480793978
2.5282799277189108e-08,-29170.10670328435,654699.8783875239
2.8384183972642706e-08,-27033.898019933797,631389.8528815967
3.1866008623488106e-08,-24596.487202765704,607655.3901112984
3.577494095200778e-08,-21860.3955274697,583613.3728280533
4.0163373306071395e-08,-18832.261382264067,559392.4731704646
4.509012488621082e-08,-15523.172756840331,535132.8225426978
5.062123011332682e-08,-11948.964431704733,510985.48482120107
5.683082370370718e-08,-8130.470805823636,487111.6694498166
6.380213431422649e-08,-4093.7251111267433,463681.59062733233
7.162860007579055e-08,129.9042680575094,440872.84000439156
8.041512096678426e-08,4503.649507359392,418868.0957080911
9.027946481238243e-08,8985.359885807533,397851.9480394748
1.0135384575466524e-07,13527.607418457592,378006.59838697274
1.1378669635014843e-07,18077.889079971785,359506.21073162876
1.2774465704657216e-07,22578.93214516931,342509.8031878383
1.4341480970437763e-07,26969.107972689555,327152.7999320023
1.6100718509929065e-07,31182.958139372742,313537.7385188927
1.8075757801466409e-07,35151.83520018567,301725.1018903267
2.029307076549301e-07,38804.658516950796,291725.68651932105
2.278237657399342e-07,42068.78358360788,283496.11785660207
2.5577039983610107e-07,44870.981103202575,276938.8781905683
2.871451853139662e-07,47138.51976805194,271907.463062046
3.2236864587078037e-07,48800.34429686202,268216.21780877374
3.6191288990944486e-07,49788.33782733196,265653.40658863477
4.063079383195007e-07,50038.65529699241,263995.5060264636
4.561488284729229e-07,49493.11201435488,263020.75166202604
5.121035896512623e-07,48100.60927932746,262520.4798223223
5.74922196800678e-07,45818.57670998784,262307.52225494216
6.454466226241629e-07,42614.408926957156,262221.5599306619
7.246221227415433e-07,38466.872492829134,262131.77918377108
8.135099051749279e-07,33367.45755684888,261937.377697067
9.133013539717295e-07,27321.647567029933,261566.49539913927
1.025333997607853e-06,20350.079732362326,260974.07201900752
1.15110943619935e-06,12489.568691106662,260139.02167472456
1.2923134678052121e-06,3793.966105759151,259061.00493312068
1.450838683578916e-06,-5665.170307963994,257756.98928158727
1.6288098346169018e-06,-15798.123479523232,256257.7254953112
1.8286123105018771e-06,-26496.802682376816,254604.22844377233
2.0529241112456025e-06,-37634.78905892581,252844.33191768485
2.304751741158771e-06,-49067.65880050273,251029.38259675395
2.587470505741883e-06,-60633.59828670458,249211.14272011834
2.9048697517061447e-06,-72154.3214699572,247438.97886293143
3.261203656486841e-06,-83436.29532531658,245757.420206117
3.661248247993413e-06,-94272.2743309398,244204.16915135592
4.110365418845124e-06,-104443.13977163745,242808.63664633638
4.614574793090707e-06,-113720.03424776992,241591.05268721227
5.180634408658257e-06,-121866.77621541973,240562.17023514558
5.816131296941888e-06,-128642.53378060063,239723.54187899854
6.529583173584297e-06,-133804.7314261608,239068.3085602007
7.330552603441569e-06,-137112.15797559876,238582.40473380484
8.229775169909627e-06,-138328.23900628102,238246.05975559726
9.23930336649704e-06,-137224.43222865195,238035.4641954419
1.0372668139256173e-05,-133583.70015870093,237924.47260558524
1.1645060245265305e-05,-127204.01083392983,237886.22896155334
1.3073533857951263e-05,-117901.81445649726,237894.62384997212
1.4677235148224411e-05,-105515.44177910287,237925.51925592628
1.647765890515174e-05,-89908.36885497402,237957.70365947828
1.849893663571733e-05,-70972.2925135659,237973.56424483555
2.0768160005138393e-05,-48629.96164213221,237959.48271356564
2.331574395288505e-05,-22837.71107526641,237905.9759102621
2.6175834351333675e-05,6412.352374712631,237807.61243822618
2.938676567099965e-05,39090.5584895504,237662.742341367
3.2991574786545186e-05,75128.31888122878,237473.0796054027
3.703857781022617e-05,114417.24537509434,237243.17750805354
4.158201768421365e-05,156808.77162250289,236979.83540875444
4.668279121162341e-05,202114.3009031483,236691.47292566375
5.240926527082344e-05,250105.89534845683,236387.50394998692
5.8838193152932947e-05,300517.51361407526,236077.73882164276
6.605574330440243e-05,353046.79549665086,235771.83838661708
7.41586542631553e-05,407357.3832834724,235478.83869897746
8.325553126817479e-05,463081.7609056573,235206.75994942719
9.34683019213017e-05,519824.5834027977,234962.30795847857
0.00010493385041182426,577166.4609653759,234750.6714579713
0.00011780585220775954,634668.1540630022,234575.4136166301
0.00013225683380462935,691875.1290461195,234438.45205872096
0.00014848048513903294,748322.4172693014,234340.1181695101
0.00016669425566084373,803539.7153537141,234279.2839117506
0.00018714226885980175,857056.6597951495,234253.54275591963
0.00021009859431059567,908408.2058214361,234259.43063588496
0.00023587092109242816,957140.0382756258,234292.67298459393
0.0002648046818187811,1002813.9413907893,234348.44472685564
0.0002972876825527304,1045013.0546445113,234421.63141540415
0.0003337553006636634,1083346.9434259755,234507.08128747356
0.00037469632029350715,1117456.415979558,234599.839703944
0.00042065948364660636,1147018.0219447715,234695.35905515595
0.0004722608459117441,1171748.1727082822,234789.67867004094
0.0005301920323960711,1191406.82961315,234879.57049252038
0.0005952295085432703,1205800.7127086,234962.64728964766
0.000668244987084209,1214785.9900299064,235037.43097212192
0.0007502171118095913,1218270.4152201812,235103.3793178479
0.000842244574564987,1216214.8894836984,235160.87009139062
0.0009455608412784363,1208634.4322296889,235211.14235460744
0.001061550684397074,1195598.553162548,235256.195762028
0.0011917687433209434,1177231.0268391098,235298.64990622477
0.0013379603616039037,1153709.0786958681,235341.56736081903
0.0015020849802075775,1125261.9991074938,235388.245953764
0.0016863424003536755,1092169.2090505622,235441.98792665772
0.0018932022679819418,1054757.807304894,235505.85587516532
0.0021254371750009096,1013399.6347438218,235582.4275438156
0.0023861598209953846,968507.8960789288,235673.5634472618
0.0026788647334778496,920533.3833920343,235780.20266702084
0.0030074751058702166,869960.3488877608,235902.20278869633
0.003376395380996514,817302.0765365146,236038.239594408
0.003790570284875552,763096.2036736559,236185.78066360395
0.004255551102057486,707899.8442190343,236341.1444043489
0.004777570080808367,652284.56504182,236499.652275023
0.005363623965413007,596831.2661928982,236655.87719634062
0.006021567775199462,542125.0143462827,236803.9856123979
0.0067602200872276435,488749.87692519056,236938.16460510646
0.007589481233770937,437283.80213479133,237053.11919525228
0.00852046599881972,388293.5875801825,237144.61876471498
0.009565652592169526,342329.9774099825,237210.06568268317
0.010739049897828902,299922.92508221616,237249.05396511036
0.012056385238417105,261577.05598010306,237263.88139390433
0.01353531517220237,227767.3612798286,237259.97525466833
0.01519566214814357,198935.15174578415,237246.19007937761
0.017059680190878886,175484.29754190956,237234.9359766402
0.01915235317670053,157777.7777257294,237242.09889930417
0.021501729698379143,146134.5608439304,237286.72023973882
0.02413929900711065,140826.8359690422,237390.41316299612
0.027100413070424708,142077.6115859573,237576.50762398896
0.030424760402997054,150058.6979221498,237868.9351748596
0.034156898021232666,164889.08657353756,238290.8878466736
0.0383468486515332,186633.73955822806,238863.3110055982
0.04305077119677292,215302.7981770102,239603.3154960567
0.04833171344740451,250851.22021469357,240522.61607029155
0.05426045712596027,293178.8520236851,241626.11721076095
0.06091646659128078,342130.9398380787,242910.7706345958
0.06838895391817905,397499.0822290147,244364.819154806
0.07677807462805569,459022.62289271684,245967.51950204128
0.08619627009712638,526390.4799430568,247689.40494987782
0.09676977463487758,599243.4045472131,249493.11184509884
0.10864030743248122,677176.658107317,251334.75798923985
0.12196697205875401,759743.0932738578,253165.8303349141
0.13692838896305695,846456.6199187832,254935.51809666515
0.1537250895675778,936796.0328531741,256593.4163009263
0.17258220403758295,1030209.1736165171,258092.52288099637
0.19375247875446222,1126117.3941755227,259392.4566713702
0.21751966393547334,1223920.2859443582,260462.82985592895
0.24420231680525822,1323000.6332773077,261286.71167769824
0.27415807129394165,1422729.5465966992,261864.11526129083
0.30778843148958834,1522471.7267120187,262215.42074492626
0.34554415309280173,1621590.808767628,262384.6100725325
0.3879312850023754,1719454.7317276234,262442.1270233009
0.43551795200880566,1815441.0774598385,262487.0883736916
0.4889419695057153,1908942.3223969727,262648.46320569
0.5489193922809734,1999370.9444967117,263084.7248784308
0.6162541119689893,2086164.3288420406,263981.4016644474
0.6918486318011088,2168789.4167459947,265545.96868144145
0.7767161630706536,2246747.0456587723,267999.71143499867
0.8719942054443924,2319575.9305049693,271566.6093750045
0.9789597931405871,2386856.2412680057,276459.92469925416
1.0990466113217496,2448212.736629797,282867.9013680567
1.2338642121171932,2503317.419188177,290940.5223486711
1.3852195878322835,2551891.6841161046,300779.35534250224
1.5551413904952367,2593707.9399826103,312432.0015735217
1.7459071223618012,2628590.687699965,325891.68379117816
1.9600736618185912,2656417.0510587716,341101.43252899376
2.2005115338310697,2677116.7599199545,357961.544069158
2.4704433842709874,2690671.594704465,376338.69693148683
2.773487173804034,2697114.308213325,396075.285731006
3.1137046702753675,2696527.0478813797,416997.9640365372
3.4956558895482757,2689039.308186226,438924.8668936951
3.924460214479118,2674825.448976691,461671.3693956263
4.40586501122105,2654101.8208461846,485054.4818101821
4.946322662536721,2627123.543263738,508896.09815960476
5.553077050616192,2594180.9849168924,533025.3428758247
6.234260648549262,2555595.9985624244,557280.2385373433
6.999003521792896,2511717.964591286,581508.875702
7.857555700605556,2462919.698480541,605570.2208624926
8.82142456363606,2409593.2773371553,629334.6590496314
9.903529074050875,2352145.8398640407,652684.3365085667
11.118372935464329,2290995.4123453903,675513.346157153
12.482238988520601,2226566.810718907,697727.7829328
14.013407453672322,2159287.665555545,719245.6860471733
15.732400945314113,2089584.6128925448,739996.8791064838
17.66225954125525,2017879.6894627814,759922.7157934903
19.828849594351112,1944586.9660384688,778975.7374063554
22.261210425371008,1870109.4474704994,797119.2483207068
24.99194354390693,1794836.2626671959,814326.8158957154
28.057649614146005,1719140.16232765,830581.7021436321
31.499419022259765,1643375.3368308905,845876.2353949741
35.36338262060462,1567875.5613819805,860211.1310661552
39.7013300304851,1492952.6704216923,873594.7713749427
44.5714037907428,1418895.3584981423,886042.4543923667
50.03887865600455,1345968.3003483752,897575.6231349402
56.17703648971452,1274411.5789023526,908221.0854748318
63.068148478343396,1204440.4063489963,918010.2354780494
70.80457783163132,1136245.1203247835,926978.2863820159
79.4900177486105,1069991.43472325,935163.5248117965
89.24088124216779,1005820.9225847146,942606.5950322256
100.18786145028722,943851.7070094204,949349.8210690786
112.47768334720406,884179.3350279431,955436.5734375559
126.27507033305963,826877.8088408873,960910.6860242579
141.76495206073776,772000.7487717166,965815.9274146683
159.15494309189532,719582.662628118,970195.5296774596
