tau,gamma,sigma_gamma
1e-07,0.00923749759304826,0.11732932683458017
1.1097524964120721e-07,0.0077171402375277864,0.10043094275841662
1.2315506032928263e-07,0.005877209833180075,0.08436088399412177
1.3667163564620074e-07,0.0038698802612628924,0.07086034110067574
1.5167168884709241e-07,0.001856514949245991,0.06148746702606052
1.6831803533309585e-07,-6.32601772565522e-06,0.0567785602975821
1.867913599020781e-07,-0.0015809153275370136,0.055604031271919506
2.0729217795953698e-07,-0.002760929700357906,0.05583831887919555
2.300430119772917e-07,-0.0034811370129830266,0.05564009989510627
2.5529080682395163e-07,-0.0037230214415586715,0.054029665592754975
2.833096101839324e-07,-0.003515578422096155,0.050837909385070844
3.1440354715915e-07,-0.0029310418166943464,0.04649551045535127
3.489101213406774e-07,-0.0020758977895525277,0.04182303661870458
3.872038781812557e-07,-0.0010781218737108134,0.037786375691801
4.2970047043208437e-07,-7.207221415939102e-05,0.03513637229020801
4.768611697714474e-07,0.0008171864963415487,0.03401450248441723
5.291978735958437e-07,0.0014882216201073106,0.03389319941690479
5.872786613189477e-07,0.0018744350098280904,0.03398482001202775
6.517339604882421e-07,0.001950680774374547,0.03369533628958785
7.232633896483533e-07,0.0017344119870372765,0.032808590848303835
8.026433522257174e-07,0.0012811824306133701,0.03145645722090539
8.907354638610439e-07,0.0006751043304760174,0.0299892635625247
9.884959046625586e-07,1.5594768633775402e-05,0.02879387239417725
1.096985797892384e-06,-0.0005976781007852594,0.028102120513926333
1.217382727739662e-06,-0.0010794122017756536,0.02788468182609967
1.3509935211980278e-06,-0.0013706141647560344,0.027908322905496143
1.499268432786047e-06,-0.0014459823376142822,0.027900689573473067
1.6638168860761274e-06,-0.001315527005885997,0.027691868833556853
1.8464249428955464e-06,-0.0010201530602103048,0.027266076954311096
2.049074689815846e-06,-0.0006219700618679269,0.02673266284192638
2.2739657523579273e-06,-0.00019107387148054045,0.026249072623269237
2.523539170434766e-06,0.00020872011693384707,0.02593314835330318
2.800503894183631e-06,0.0005323811710482573,0.025807124336089452
3.107866187782014e-06,0.0007617744580485919,0.025801995357680702
3.4489622604057595e-06,0.0009074636827293148,0.025811330244492503
3.827494478516315e-06,0.00100346007042873,0.025753184001457374
4.247571552536894e-06,0.0010956201686980194,0.02560494464247438
4.713753134116729e-06,0.0012258606952428863,0.025401235355635335
5.2310993080562585e-06,0.0014155444705679088,0.0252045417962679
5.805225516094895e-06,0.0016520144509755141,0.025067418837635053
6.44236350872137e-06,0.0018821054045261576,0.02500634758155967
7.149428986597577e-06,0.0020154661279754293,0.024999391222973937
7.934096665797492e-06,0.0019387644748860566,0.025004936426313726
8.804883581643465e-06,0.0015395784226299725,0.02498703063022623
9.771241535346501e-06,0.0007363972519414119,0.024932409835694065
1.0843659686896109e-05,-0.0004908521735131899,0.024852348772661705
1.2033778407775906e-05,-0.0020765021971769215,0.02477168292924045
1.3354515629298974e-05,-0.003857755495275228,0.02471301375150302
1.48202070579886e-05,-0.005581442704759354,0.024685065474271486
1.6446761779946626e-05,-0.006931371329756075,0.024680582238993398
1.8251834943190462e-05,-0.007574946444343311,0.0246831198583826
2.0255019392306664e-05,-0.0072236008554043,0.024677351335199587
2.2478058335487252e-05,-0.005697812559652959,0.024656690038943913
2.4945081352303165e-05,-0.002984909222888632,0.02462482937643589
2.7682866303920665e-05,0.000722851241363287,0.02459165153007791
3.072112998861759e-05,0.005020852794245911,0.024566724575563338
3.409285069746814e-05,0.009322351733203504,0.02455424880286548
3.783462617131933e-05,0.012927495554819757,0.024551808131503483
4.1987070844439056e-05,0.015125243048089487,0.02455288043863008
4.659525668664687e-05,0.015315277046795472,0.02455101091584651
5.170920242896755e-05,0.013131272174689457,0.024543122322484224
5.7384416483024044e-05,0.008543680930131359,0.024530396944380483
6.368249944718586e-05,0.001920478003555104,0.024516755597721162
7.067181273927492e-05,-0.005971501415558578,0.02450621579469332
7.842822061337681e-05,-0.014034080726560205,0.024500717099549655
8.703591361485166e-05,-0.020972834667617235,0.024499478257914698
9.658832241158708e-05,-0.02548643051162003,0.024499916129709153
0.00010718913192051276,-0.026485491699020258,0.024499333412974007
0.00011895340673703195,-0.023307587073531977,0.02449633197061388
0.0001320088400831418,-0.01589089062881044,0.024491264719771352
0.00014649713983072864,-0.004870931907277054,0.024485676836196645
0.0001625755666443795,0.008426874908906257,0.024481239546899704
0.00018041864093920718,0.022112163852085587,0.024478834552655516
0.00020022003718155845,0.03396704322392452,0.024478228419346597
0.0002221946860939524,0.04177128527118157,0.024478412197963897
0.0002465811075822604,0.04367241326991689,0.024478267995573847
0.0002736439997074672,0.03854459892966133,0.024477170808813876
0.00030367711180354605,0.02627483607710701,0.024475200277803543
0.00033700643292719284,0.007919068530213735,0.024472947491033164
0.0003739937302478798,-0.014314703392699357,0.024471097513957197
0.0004150404757850477,-0.037276011786616436,0.024470048966482374
0.00046059220411451084,-0.05726444892349036,0.02446975998637641
0.0005111433483440171,-0.07056399911675726,0.02446986009565856
0.0005672426068491978,-0.07404969718589882,0.024469902986670622
0.0006294988990221888,-0.06577686212790468,0.02446960598905013
0.0006985879746785249,-0.04545519275757215,0.02446895041422811
0.0007752597488629464,-0.014717020704210881,0.02446812772095922
0.000860346441668451,0.0228885389742004,0.024467393423299316
0.0009547716114208065,0.062207943349790185,0.024466936025808333
0.001059560179277617,0.09708964222289751,0.024466799992684196
0.0011758495540521582,0.12122460311957184,0.02446690567728143
0.0013049019780144017,0.12911812262211697,0.024467116298426322
0.001448118227674533,0.11705915359721075,0.024467294897899325
0.0016070528182616384,0.08394028510724638,0.024467354711363347
0.0017834308769319094,0.031789868358828244,0.024467269005380023
0.0019791668678535573,-0.03409195291158085,0.02446707626287276
0.002196385372416547,-0.10545235198560476,0.02446687499250368
0.002437444150122222,-0.17185715407094904,0.02446680366453485
0.002704959730463137,-0.22184534580480886,0.024466997773744878
0.0030018358135755923,-0.24433717109445752,0.024467514564276517
0.003331294787934677,-0.2301207687024771,0.024468282712773872
0.0036969127071950323,-0.1732196065674998,0.02446909478526524
0.00410265810582719,-0.07194759583899213,0.02446969379894006
0.004552935074866948,0.07050865734663603,0.024469918124072444
0.00505263106533568,0.2460840695157458,0.02446983640079903
0.005607169938205458,0.4424354639266994,0.024469773117703073
0.006222570836730231,0.6440970913976116,0.024470182053764354
0.006905513520162331,0.8340641629389438,0.024471390459879852
0.007663410868007463,0.9956168234887173,0.02447335752822888
0.008504489341802686,1.1141611094652717,0.0244756128667318
0.009437878277775391,1.1788575355121793,0.02447745586353984
0.010473708979594508,1.1838331549761278,0.024478360563649958
0.011623224686798541,1.1288258386572352,0.024478375877421805
0.01289890261253308,1.0191827272569753,0.024478248242024006
0.014314589375234785,0.8652180655788015,0.024479127506114293
0.015885651294280528,0.6810173124449648,0.02448192614762319
0.01762914118095948,0.4828433133012595,0.024486675761819385
0.01956398343517065,0.28734721144451214,0.02449230452533525
0.021711179456945052,0.10980575931773728,0.02449708224686992
0.02409403560239527,-0.037404043654760244,0.024499609533031586
0.026738416158399492,-0.14592010779222164,0.024499844130550875
0.029673024081888724,-0.2119865383187971,0.02449949410764599
0.032929712550971546,-0.23647889293886237,0.024501363183841114
0.036543830709572546,-0.22439485222787425,0.02450781752691312
0.040554607358408275,-0.18390738736900403,0.02451916230346017
0.04500557675700498,-0.1251267570487471,0.024532970789968255
0.0499450511585514,-0.058744784996633825,0.024545044865573185
0.05542664520663107,0.005262485221692259,0.024551782204018536
0.06150985788580504,0.058718312289215646,0.02455274203528297
0.06826071834272393,0.095999127441587,0.02455177671364346
0.0757525025877192,0.11439483616504731,0.024555659333302754
0.08406652885618333,0.11406792247998965,0.024570453031825847
0.09329304026284696,0.09765643066293705,0.0245974379823678
0.10353218432956637,0.0696081452550743,0.024631191451672696
0.11489510001873086,0.03536018586578393,0.02466161530647808
0.1275051240713013,0.00048740939507752046,0.024679504474178493
0.1414991297434576,-0.03006523906719849,0.02468290501866573
0.15702901247293774,-0.052574268192984164,0.02468034641605978
0.17426333860096507,-0.06489411506544229,0.024688089931111136
0.19338917504552322,-0.06655746965054732,0.02472163678804805
0.21461411978584058,-0.05863524390309749,0.02478556919037135
0.23816855519761607,-0.04340286019470341,0.0248681063081038
0.2643081486974108,-0.023880746787426688,0.024945119298951643
0.29331662783900486,-0.0033265305017096125,0.02499311454967728
0.32550885998350565,0.015245702924488569,0.025004851547847415
0.36123426997094304,0.029456000390638337,0.024998428352293375
0.40088063288984643,0.03781554447476765,0.025012542831608125
0.4448782831127585,0.03983006542952694,0.025087101599565273
0.4937047852839004,0.03595319896189153,0.025237830458335855
0.5478901179593945,0.027413670579065297,0.025440583376978694
0.6080224261649427,0.015954864227055054,0.025638386853887665
0.67475440531107,0.0035329543922273388,0.025771044581875614
0.748810385759003,-0.007979887190359136,0.025812955481251537
0.8309941949353403,-0.017046839638950928,0.025798677704565637
0.9221978823334341,-0.022642952727494503,0.025818453254458067
1.0234114021054528,-0.024341183941984923,0.02597680250742047
1.135733358343105,-0.02230653850151043,0.026328817505005087
1.2603829296797273,-0.0172096247993494,0.02683286345845221
1.3987131026472386,-0.010080588333892138,0.027357970963300924
1.552225357427048,-0.002130019884674539,0.027748760963958206
1.7225859653987874,0.005435221874492413,0.02791431247040943
1.9116440753857036,0.01157592584188194,0.027898911274615013
2.121451784910632,0.015544521572579129,0.02789831641964935
2.35428641432242,0.016957116589715326,0.028190524586538375
2.612675225563332,0.015809844493006153,0.02898188153055884
2.8994228538828812,0.012443570159810236,0.030252363352294313
3.2176417502507353,0.007467289993556392,0.03172908756576611
3.5707859649004625,0.0016547259704822181,0.03301680236040998
3.9626886387014784,-0.004169633026151587,0.033793284523101506
4.397603609302721,-0.009239361179744776,0.03398366339499589
4.880251583654434,-0.01293663913867249,0.0338766462527979
5.415871378079476,-0.01485524643428704,0.03412496865846568
6.010276782070388,-0.014831319218103545,0.03550791714666675
6.669919663030129,-0.012941777403259636,0.03844905735522714
7.401959996915652,-0.009474331630926258,0.04267331890507205
8.214343584919439,-0.004875973031769121,0.04735721034918146
9.115888299750837,0.00031141386849498076,0.051538739451587254
10.11637979766207,0.005519238296727735,0.054453650098333875
11.226677735108158,0.010215850207934807,0.055766812894237586
12.458833642950081,0.013958956758441943,0.05578309040308688
13.826221737646593,0.016432342865442706,0.055649711839013925
15.343684089300131,0.017464869401884187,0.057332094989760954
17.02769172225898,0.017032042367615574,0.06287361844262897
18.896523396912116,0.015242380713521797,0.07310002790177002
20.970464013232306,0.012312184037600815,0.08721125628131304
23.27202478960412,0.008533037879102423,0.10356420344730745
25.826187606826746,0.004236510151592654,0.12043808810214442
28.66067616948256,-0.00023992145167905932,0.1363461929000728
31.80625692794119,-0.004582473263257114,0.15012733074878148
35.297073027306574,-0.008523979021347827,0.1609889355796059
39.17101490809261,-0.011859009786970631,0.16854793161814505
43.47013158125035,-0.01445107935842449,0.1728721633220267
48.241087041653735,-0.01623265667698437,0.17451484918450638
53.535666774107185,-0.017199299109242894,0.17452520027308804
59.411339849650396,-0.017399553419536584,0.17439787673001259
65.93188271333541,-0.016922360628950806,0.17589849129549298
73.16807143427206,-0.015883588446599095,0.18071643086232822
81.19844993184009,-0.014413057090803427,0.1900152822655776
90.11018251665037,-0.012643082124152327,0.2041166446508568
100.0,-0.010699188316137587,0.2225235699318435
