tau,gamma,sigma_gamma
1.5915494309189534e-08,-362565.074718505,793865.8724012806
1.7867812560421838e-08,-345226.6855306383,743665.1790155339
2.0059617344717335e-08,-326631.65683435136,694585.9305908526
2.252028594187271e-08,-306856.1329650725,646794.4691251742
2.5282799277189108e-08,-285988.0758003247,600458.7972060553
2.8384183972642706e-08,-264127.0750406495,555748.7318503617
3.1866008623488106e-08,-241384.03240617248,512836.1929017719
3.577494095200778e-08,-217880.71556163463,471895.56752841704
4.0163373306071395e-08,-193749.1788505935,433104.01276436663
4.509012488621082e-08,-169131.04930482432,396641.4232782813
5.062123011332682e-08,-144176.67788681109,362689.57849753246
5.683082370370718e-08,-119044.15750820446,331429.67681988527
6.380213431422649e-08,-93898.21102954284,303037.088620049
7.162860007579055e-08,-68908.95416908152,277671.8383113106
8.041512096678426e-08,-44250.5400111489,255463.36916166227
9.027946481238243e-08,-20099.69358617696,236489.0822028441
1.0135384575466524e-07,3365.8532278379425,220748.5026549984
1.1378669635014843e-07,25969.014483299106,208138.56433233648
1.2774465704657216e-07,47535.07692542439,198438.7198913931
1.4341480970437763e-07,67893.48542769253,191314.36688165914
1.6100718509929065e-07,86879.67027826584,186341.57940084537
1.8075757801466409e-07,104336.89811670454,183047.63874827328
2.029307076549301e-07,120118.12709932122,180955.88818709404
2.278237657399342e-07,134087.84583343845,179623.69154282426
2.5577039983610107e-07,146123.87478895253,178667.37384138152
2.871451853139662e-07,156119.10829200572,177773.7822936587
3.2236864587078037e-07,163983.17485026922,176701.59409753318
3.6191288990944486e-07,169643.99346891022,175276.3690720627
4.063079383195007e-07,173049.20380599285,173382.6667753888
4.561488284729229e-07,174167.44849594124,170955.41444683596
5.121035896512623e-07,172989.4867476446,167971.72046371098
5.74922196800678e-07,169529.11940326728,164443.65076205033
6.454466226241629e-07,163823.90702369763,160412.08900587726
7.246221227415433e-07,155935.66424233816,155941.59451230775
8.135099051749279e-07,145950.71559055708,151116.0730613989
9.133013539717295e-07,133979.9002319998,146035.02815518322
1.025333997607853e-06,120158.3155302275,140810.13048739062
1.15110943619935e-06,104644.79209192935,135561.8166226436
1.2923134678052121e-06,87621.09584950982,130415.6052131579
1.450838683578916e-06,69290.8558397945,125497.81856548469
1.6288098346169018e-06,49878.21956667118,120930.45451484903
1.8286123105018771e-06,29626.24116475135,116825.11550039514
2.0529241112456025e-06,8795.010968786199,113276.20447775314
2.304751741158771e-06,-12340.461504727602,110354.0220999698
2.587470505741883e-06,-33492.59578638757,108098.82736952338
2.9048697517061447e-06,-54363.80122231785,106517.13739975315
3.261203656486841e-06,-74649.22844209801,105581.32675482248
3.661248247993413e-06,-94039.68668819685,105232.90493940728
4.110365418845124e-06,-112224.69938763697,105388.93854031502
4.614574793090707e-06,-128895.6678272998,105950.34584197994
5.180634408658257e-06,-143749.1105775074,106810.53302898337
5.816131296941888e-06,-156489.94443438668,107863.08632147037
6.529583173584297e-06,-166834.77115494572,109007.76543033635
7.330552603441569e-06,-174515.13316988526,110154.5876350054
8.229775169909627e-06,-179280.70080509875,111226.17682858786
9.23930336649704e-06,-180902.3533429713,112158.73858001157
1.0372668139256173e-05,-179175.11652425444,112902.05619076015
1.1645060245265305e-05,-173920.9198380867,113418.85189582544
1.3073533857951263e-05,-164991.13817383675,113683.77618413015
1.4677235148224411e-05,-152268.88410882372,113682.20909876013
1.647765890515174e-05,-135671.0192680792,113408.99328332435
1.849893663571733e-05,-115149.85579820443,112867.17255576319
2.0768160005138393e-05,-90694.52202146128,112066.77887198412
2.331574395288505e-05,-62331.96974636987,111023.69130620662
2.6175834351333675e-05,-30127.604469873942,109758.57899790634
2.938676567099965e-05,5814.476230008528,108295.93349298122
3.2991574786545186e-05,45351.64649202768,106663.19192288739
3.703857781022617e-05,88303.32401743531,104889.95006481608
4.158201768421365e-05,134451.95115015935,103007.26228953831
4.668279121162341e-05,183544.38162064925,101047.02347603906
5.240926527082344e-05,235293.66459915787,99041.42545648335
5.8838193152932947e-05,289381.2129582446,97022.47809257713
6.605574330440243e-05,345459.33799842,95021.58203676945
7.41586542631553e-05,403154.12840806507,93069.13784990704
8.325553126817479e-05,462068.6469688229,91194.17429740321
9.34683019213017e-05,521786.4145399621,89423.97865678741
0.00010493385041182426,581875.147213038,87783.71406970141
0.00011780585220775954,641890.709273953,86296.01451712045
0.00013225683380462935,701381.2417859333,84980.55636436531
0.00014848048513903294,759891.4242567495,83853.6170464137
0.00016669425566084373,816966.8250071071,82927.64382434144
0.00018714226885980175,872158.2945427718,82210.86721335373
0.00021009859431059567,925026.3554684669,81707.00122559447
0.00023587092109242816,975145.5422791457,81415.0735186481
0.0002648046818187811,1022108.6447267504,81329.42193237631
0.0002972876825527304,1065530.8093840666,81439.87958519209
0.0003337553006636634,1105053.455499407,81732.15200466385
0.00037469632029350715,1140347.963237987,82188.36995895323
0.00042065948364660636,1171119.094908813,82787.78515180726
0.0004722608459117441,1197108.1127481088,83507.56509425181
0.0005301920323960711,1218095.5602309052,84323.64000092655
0.0005952295085432703,1233903.6776643759,85211.55689814533
0.000668244987084209,1244398.4269304164,86147.30281278104
0.0007502171118095913,1249491.1046361616,87108.06733459626
0.000842244574564987,1249139.5275382027,88072.92311866353
0.0009455608412784363,1243348.7788731363,89023.40942948218
0.001061550684397074,1232171.5090864077,89944.00832955311
0.0011917687433209434,1215707.7893443247,90822.50576443087
0.0013379603616039037,1194104.5210754965,91650.23040988794
0.0015020849802075775,1167554.409556931,92422.16345930788
0.0016863424003536755,1136294.5141788404,93136.91232391912
0.0018932022679819418,1100604.392432399,93796.54187254478
0.0021254371750009096,1060803.8588158777,94406.25881755793
0.0023861598209953846,1017250.383697398,94973.94878491577
0.0026788647334778496,970336.1606655009,95509.57191475545
0.0030074751058702166,920484.8740027379,96024.43158440667
0.003376395380996514,868148.2006040774,96530.34186296887
0.003790570284875552,813802.0829033814,97038.73131628233
0.004255551102057486,757942.8111520223,97559.73285853499
0.004777570080808367,701082.9547007475,98101.3188977325
0.005363623965413007,643747.1827650089,98668.54652170597
0.006021567775199462,586468.0155073404,99262.97678040207
0.0067602200872276435,529781.546156317,99882.3244373195
0.007589481233770937,474223.1743125655,100520.38062741539
0.00852046599881972,420323.38959287666,101167.23172535984
0.009565652592169526,368603.64335281216,101809.7769380514
0.010739049897828902,319572.34444203414,102432.52698017814
0.012056385238417105,273721.0128148608,103018.64983448727
0.01353531517220237,231520.62238109857,103551.21806794207
0.01519566214814357,193418.16177808866,104014.60580079383
0.017059680190878886,159833.43881683238,104395.98090975234
0.01915235317670053,131156.15124719217,104686.83721345695
0.021501729698379143,107743.24324185029,104884.50944746862
0.02413929900711065,89916.56366420165,104993.60812554593
0.027100413070424708,77960.83879952691,105027.29948873524
0.030424760402997054,72121.96884069964,105008.33606637015
0.034156898021232666,72605.65406347997,104969.71652392551
0.0383468486515332,79576.35334533453,104954.82275710159
0.04305077119677292,93156.57450746372,105016.85602835422
0.04833171344740451,113426.49292672426,105217.3874246493
0.05426045712596027,140423.89199981652,105623.87113965001
0.06091646659128078,174144.41637180187,106306.06367360869
0.06838895391817905,214542.12638539262,107331.4585748088
0.07677807462805569,261530.3399840556,108760.06818352568
0.08619627009712638,314982.7463229988,110639.10744881447
0.09676977463487758,374734.7736165356,112998.2763685996
0.10864030743248122,440585.19228461664,115846.31880948985
0.12196697205875401,512297.93325400166,119169.33214206391
0.13692838896305695,589604.100321929,122930.97043411812
0.1537250895675778,672204.1547938231,127074.34021573227
0.17258220403758295,759770.2501553427,131525.14582448613
0.19375247875446222,851948.6943207495,136195.55877020556
0.21751966393547334,948362.5170021225,140988.3469579336
0.24420231680525822,1048614.1199510172,145800.94535303224
0.27415807129394165,1152287.9882207718,150529.3143457135
0.30778843148958834,1258953.4411648456,155071.5725762888
0.34554415309280173,1368167.4026064444,159331.490558066
0.3879312850023754,1479477.1704689935,163221.9933273094
0.43551795200880566,1592423.1671250658,166668.85587308143
0.4889419695057153,1706541.6527866386,169614.79556348835
0.5489193922809734,1821367.385402104,172024.1774095253
0.6162541119689893,1936436.2117280029,173888.54858368065
0.6918486318011088,2051287.5754905036,175233.19357096168
0.7767161630706536,2165466.9298259895,176124.81825983681
0.8719942054443924,2278528.0424785167,176680.27174328562
0.9789597931405871,2390035.1835218575,177075.80977882925
1.0990466113217496,2499565.1866517505,177555.68946329798
1.2338642121171932,2606709.376352614,178437.80859527824
1.3852195878322835,2711075.3544708854,180112.83368637055
1.5551413904952367,2812288.640918906,183032.44242041043
1.7459071223618012,2909994.1643819306,187683.178573164
1.9600736618185912,3003857.6000021016,194546.23809216282
2.2005115338310697,3093566.5520635163,204049.93600429632
2.4704433842709874,3178831.5806986205,216527.27636586103
2.773487173804034,3259387.072578473,232191.1360230885
3.1137046702753675,3334991.9564343262,251132.62453261748
3.4956558895482757,3405430.2650878113,273338.6796990326
3.924460214479118,3470511.5464417404,298719.2236828647
4.40586501122105,3530071.1266026176,327134.4894127488
4.946322662536721,3583970.228972715,358416.98596664483
5.553077050616192,3632095.95376405,392386.5623707591
6.234260648549262,3674361.1229505497,428859.4344617255
6.999003521792896,3710703.9961901116,467652.8711185257
7.857555700605556,3741087.863716219,508587.158095503
8.82142456363606,3765500.522619248,551486.052061549
9.903529074050875,3783953.6433198163,596176.5173655461
11.118372935464329,3796482.033359485,642488.214300936
12.482238988520601,3803142.805937394,690252.9911533301
14.013407453672322,3804014.460859349,739304.4999329937
15.732400945314113,3799195.885776936,789477.9800487555
17.66225954125525,3788805.2857578294,840610.2138147256
19.828849594351112,3772979.049351756,892539.6378780663
22.261210425371008,3751870.5593985617,945106.586379783
24.99194354390693,3725648.95686561,998153.6394489363
28.057649614146005,3694497.8660011254,1051526.051470857
31.499419022259765,3658614.089048294,1105072.2357542287
35.36338262060462,3618206.2786820075,1158644.2848868798
39.7013300304851,3573493.5962066827,1212098.5087612376
44.5714037907428,3524704.3633895917,1265295.9747939683
50.03887865600455,3472074.715600688,1318103.0371600278
56.17703648971452,3415847.26368819,1370391.8439247224
63.068148478343396,3356269.771739501,1422040.8127848464
70.80457783163132,3293593.8575623864,1472935.0677627851
79.4900177486105,3228073.7223723517,1522966.8306550581
89.24088124216779,3159964.9157915115,1572035.7623483404
100.18786145028722,3089523.141854989,1620049.2503023597
112.47768334720406,3017003.1112847216,1666922.6395760693
126.27507033305963,2942657.444831728,1712579.4057547632
141.76495206073776,2866735.6320090755,1756951.2690311023
159.15494309189532,2789483.04904284,1799978.2495101115
