tau,gamma,sigma_gamma
1e-07,0.015681815418588485,0.06962000813571985
1.1097524964120721e-07,0.017643625691000864,0.05729087296838854
1.2315506032928263e-07,0.0186323943009441,0.04670357664596727
1.3667163564620074e-07,0.018585482724262192,0.038925513887105294
1.5167168884709241e-07,0.017508609400223918,0.034549032106418645
1.6831803533309585e-07,0.015480920537271459,0.03307701050537224
1.867913599020781e-07,0.01265396194397539,0.03308081507310921
2.0729217795953698e-07,0.009243959808756586,0.03314548113400013
2.300430119772917e-07,0.0055174700144320354,0.032436876537967375
2.5529080682395163e-07,0.001771185612028603,0.030694939743307118
2.833096101839324e-07,-0.0016925799590836732,0.028067331071813438
3.1440354715915e-07,-0.004592581707683507,0.02496748517706387
3.489101213406774e-07,-0.006694901467014347,0.021958797051852285
3.872038781812557e-07,-0.007835985071650953,0.01960802868493443
4.2970047043208437e-07,-0.007939793634207604,0.018255743184626777
4.768611697714474e-07,-0.0070268607527737,0.017811370845693217
5.291978735958437e-07,-0.005213808495184935,0.017832784007951637
5.872786613189477e-07,-0.0027028714269903276,0.017840842955889346
6.517339604882421e-07,0.00023789695956111245,0.017544018944914384
7.232633896483533e-07,0.003301940364906386,0.016881312557389044
8.026433522257174e-07,0.006176270165681785,0.015974084343975497
8.907354638610439e-07,0.008574830685262214,0.015045937805381498
9.884959046625586e-07,0.010269396019069177,0.014321497603919936
1.096985797892384e-06,0.011114380455097717,0.013920775694940709
1.217382727739662e-06,0.011062543865989483,0.013805622727131829
1.3509935211980278e-06,0.010169572010397587,0.013824226218465348
1.499268432786047e-06,0.00858679899533854,0.013812375330975226
1.6638168860761274e-06,0.006542761587525092,0.013671859972931511
1.8464249428955464e-06,0.004315654865678198,0.0133950548615423
2.049074689815846e-06,0.0021999172267044287,0.013047232183713309
2.2739657523579273e-06,0.00047095443125044767,0.012724406992629349
2.523539170434766e-06,-0.0006476935650994164,0.012503367546399554
2.800503894183631e-06,-0.0010106828577534088,0.01240548731832168
3.107866187782014e-06,-0.0005673952419158468,0.01239393448729281
3.4489622604057595e-06,0.0006334357609318886,0.012402781117612437
3.827494478516315e-06,0.0024516231387963217,0.012375121568209212
4.247571552536894e-06,0.004674983902759777,0.01228769724671765
4.713753134116729e-06,0.007047903318081694,0.012154404942291848
5.2310993080562585e-06,0.009305356387528718,0.012012537814701591
5.805225516094895e-06,0.01120799006167772,0.011900681596382374
6.44236350872137e-06,0.012573677538711081,0.011839107932479321
7.149428986597577e-06,0.01330135559119583,0.011822291884795012
7.934096665797492e-06,0.013383909528116078,0.011825997209409406
8.804883581643465e-06,0.012908269111250092,0.011822700773062307
9.771241535346501e-06,0.012042553634103115,0.01179557263663039
1.0843659686896109e-05,0.01101184577623826,0.011744426439946965
1.2033778407775906e-05,0.010065755984498992,0.011682610872632981
1.3354515629298974e-05,0.009442147580443816,0.011627943227505731
1.48202070579886e-05,0.009332051919670903,0.011592989015548021
1.6446761779946626e-05,0.009850800303553342,0.011579521376931122
1.8251834943190462e-05,0.011019703650561041,0.01157937668362616
2.0255019392306664e-05,0.012761281321729712,0.011580240413598142
2.2478058335487252e-05,0.01490922511129611,0.011572467713275403
2.4945081352303165e-05,0.017232207095275953,0.011553268758470752
2.7682866303920665e-05,0.019468576372617008,0.011526807589183482
3.072112998861759e-05,0.02136723324531431,0.011500823968041411
3.409285069746814e-05,0.022728792541414577,0.011482095323462026
3.783462617131933e-05,0.023440761629643703,0.011473155249626048
4.1987070844439056e-05,0.023500977074604634,0.011471695311741989
4.659525668664687e-05,0.023024958270468687,0.011472535975262786
5.170920242896755e-05,0.02223500539065526,0.011470685043647325
5.7384416483024044e-05,0.021431526992614636,0.01146377549414789
6.368249944718586e-05,0.020949867678098144,0.01145273902143888
7.067181273927492e-05,0.021108405538313946,0.01144072246723023
7.842822061337681e-05,0.022155497081030262,0.01143111745648298
8.703591361485166e-05,0.024223628115635165,0.011425755904469757
9.658832241158708e-05,0.02729867506707251,0.011424272271754068
0.00010718913192051276,0.03121045691875679,0.011424619197233988
0.00011895340673703195,0.035647921165320895,0.011424381582543974
0.0001320088400831418,0.04019870328664865,0.011422054066136788
0.00014649713983072864,0.04440892087461634,0.011417597797144685
0.0001625755666443795,0.04785549271019818,0.011412202463058995
0.00018041864093920718,0.050220590911465024,0.011407472010748524
0.00020022003718155845,0.0513565367590445,0.011404501240806627
0.0002221946860939524,0.05132986030105258,0.01140343521980495
0.0002465811075822604,0.05043544635043418,0.011403518041374652
0.0002736439997074672,0.04917550147453653,0.01140364142696861
0.00030367711180354605,0.048203051796122054,0.011402940241357889
0.00033700643292719284,0.048235158844477155,0.011401206668126513
0.0003739937302478798,0.049946228917860935,0.011398865612132849
0.0004150404757850477,0.053855879551719,0.0113966461021337
0.00046059220411451084,0.06022810519763766,0.011395163055258414
0.0005111433483440171,0.0689984591499524,0.011394606549570415
0.0005672426068491978,0.07974345062595489,0.011394702326821406
0.0006294988990221888,0.09170150867515758,0.011394916353557143
0.0006985879746785249,0.10384820551527696,0.011394787266566403
0.0007752597488629464,0.11502077899552887,0.011394140316716447
0.000860346441668451,0.12407936723832336,0.011393149267404987
0.0009547716114208065,0.13008585587675725,0.011392202295693347
0.001059560179277617,0.13247684494410805,0.011391654020710075
0.0011758495540521582,0.13120574420224784,0.011391628604272728
0.0013049019780144017,0.12683082676971935,0.011391988824211134
0.001448118227674533,0.12053120568623399,0.011392394939689196
0.0016070528182616384,0.11404068758326957,0.011392550956867892
0.0017834308769319094,0.1094994278747663,0.011392332518999154
0.0019791668678535573,0.10923407001746455,0.011391910237108206
0.002196385372416547,0.11548722934708167,0.01139160028060819
0.002437444150122222,0.1301254098989375,0.011391716250112618
0.002704959730463137,0.15435952990264923,0.011392356686803454
0.0030018358135755923,0.1885133321336525,0.011393345479758878
0.003331294787934677,0.23187169385801099,0.011394296624594085
0.0036969127071950323,0.2826333945611168,0.011394851258644336
0.00410265810582719,0.33798195887015936,0.011394893110865724
0.004552935074866948,0.3942749553172007,0.011394655556277236
0.00505263106533568,0.4473381319630789,0.011394647926426036
0.005607169938205458,0.4928377042263037,0.011395369571407942
0.006222570836730231,0.5266936294074185,0.01139701699621082
0.006905513520162331,0.5454901997841262,0.011399317616512727
0.007663410868007463,0.5468387113455719,0.01140160021431049
0.008504489341802686,0.5296506879024037,0.011403158935559066
0.009437878277775391,0.49428888413888217,0.011403669019005
0.010473708979594508,0.44257614796333655,0.011403468417755531
0.011623224686798541,0.3776577489389865,0.011403518613681118
0.01289890261253308,0.3037291648341238,0.011404902750909269
0.014314589375234785,0.22565660439045132,0.011408236518819717
0.015885651294280528,0.14852987109327387,0.011413207406168264
0.01762914118095948,0.0771950150172529,0.011418545385480258
0.01956398343517065,0.01581658784670026,0.011422668162596487
0.021711179456945052,-0.03248411199041357,0.011424560530356643
0.02409403560239527,-0.06587724646192328,0.011424531529006703
0.026738416158399492,-0.08393470314490514,0.011424333708337635
0.029673024081888724,-0.0875939151888474,0.011426422893921115
0.032929712550971546,-0.07898340929455117,0.011432607097665639
0.036543830709572546,-0.06113368931767127,0.011442865457182011
0.040554607358408275,-0.03760940124539047,0.01145497569162858
0.04500557675700498,-0.01210652451209171,0.011465442762041731
0.0499450511585514,0.011939257249309776,0.011471387597630228
0.05542664520663107,0.031689993672500805,0.011472454742739396
0.06150985788580504,0.04515384900849995,0.011471618533467579
0.06826071834272393,0.05132155925491588,0.011474125432570512
0.0757525025877192,0.05018233124667404,0.011484842534175503
0.08406652885618333,0.04262518109175062,0.011505264456245255
0.09329304026284696,0.03024491134345908,0.011531940690953832
0.10353218432956637,0.015082124458672297,0.011557593609831086
0.11489510001873086,-0.0006672629168065214,0.01157479950345809
0.1275051240713013,-0.014936155734858403,0.011580519702833044
0.1414991297434576,-0.0260304423808293,0.01157895073161911
0.15702901247293774,-0.03280673453093641,0.011580672803645258
0.17426333860096507,-0.03476723308062901,0.011597761455788913
0.19338917504552322,-0.03206665342008819,0.011636866827956395
0.21461411978584058,-0.02543739012844526,0.011694085297458362
0.23816855519761607,-0.016048791038315358,0.011755273116093236
0.2643081486974108,-0.005323414334213794,0.011802654946489589
0.29331662783900486,0.005263249266363346,0.011824826513736772
0.32550885998350565,0.014373115989542384,0.011825087721072935
0.36123426997094304,0.020962800001257165,0.011822995707726035
0.40088063288984643,0.024390782853743076,0.01184668109316545
0.4448782831127585,0.024465120281348618,0.011917952201629091
0.4937047852839004,0.021430645141208515,0.012037669807405057
0.5478901179593945,0.01590237834059849,0.01218113733974129
0.6080224261649427,0.008758109730905517,0.01230829733410961
0.67475440531107,0.001007175480793876,0.012384641258236163
0.748810385759003,-0.006346003449607451,0.012402562368286529
0.8309941949353403,-0.012426026791160893,0.012392477972994127
0.9221978823334341,-0.016583801619674432,0.012415437068940759
1.0234114021054528,-0.018457243713697835,0.012534943390894308
1.135733358343105,-0.01799113814502107,0.012778482853726996
1.2603829296797273,-0.015417441768590834,0.013112996767863814
1.3987131026472386,-0.011202158240266158,0.013454633885952721
1.552225357427048,-0.005968515568426369,0.01370929887655908
1.7225859653987874,-0.0004081865165233012,0.01382261148360871
1.9116440753857036,0.0048073853351269236,0.01381873326080355
2.121451784910632,0.009104724694992683,0.013811586388902435
2.35428641432242,0.012066768404892514,0.013970526386488002
2.612675225563332,0.01346690974200726,0.01443335507855126
2.8994228538828812,0.013277081035013794,0.015209188427264365
3.2176417502507353,0.01165165799773149,0.01615194129651895
3.5707859649004625,0.008891715380912046,0.01702877758373629
3.9626886387014784,0.005396033169830616,0.017628059379091707
4.397603609302721,0.0016061128624897947,0.01785696184677543
4.880251583654434,-0.0020476707396923644,0.017817266216444378
5.415871378079476,-0.005192645732499557,0.01784309350367095
6.010276782070388,-0.007548622810730876,0.01842971022486823
6.669919663030129,-0.00894830815107639,0.01997511733572409
7.401959996915652,-0.009342788427716187,0.02248460503956664
8.214343584919439,-0.008793336347977743,0.02555569009144941
9.115888299750837,-0.007452200447147561,0.028607408569345735
10.11637979766207,-0.005535947099374994,0.031095097807277622
11.226677735108158,-0.0032952797159637726,0.03264581971823865
12.458833642950081,-0.000985107396260787,0.03317575562373165
13.826221737646593,0.0011619321996647614,0.03303978992697967
15.343684089300131,0.002956141924325806,0.03319083643806549
17.02769172225898,0.00426426147940262,0.03511174681638702
18.896523396912116,0.0050154151969827865,0.04012178902258152
20.970464013232306,0.005200008528834843,0.048491252092448554
23.27202478960412,0.004862745874568475,0.05948804778299964
25.826187606826746,0.004091375943936271,0.07201846356180151
28.66067616948256,0.0030029551196477655,0.08501075188119928
31.80625692794119,0.0017293775871358719,0.09752126102528968
35.297073027306574,0.00040369890074387627,0.10876127953405113
39.17101490809261,-0.0008515648136508958,0.11812193995451957
43.47013158125035,-0.0019333855757839302,0.12520877841674144
48.241087041653735,-0.0027640546159304336,0.12988334194047899
53.535666774107185,-0.0032939006282504124,0.1323084446215957
59.411339849650396,-0.003501198259108662,0.13299206079212048
65.93188271333541,-0.0033897787826013825,0.13281564504784948
73.16807143427206,-0.0029849709561196036,0.13301082173482812
81.19844993184009,-0.0023285306348492796,0.1350219567141821
90.11018251665037,-0.0014731779923780053,0.14020850230129606
100.0,-0.00047727050720958175,0.14946298649417575
