tau,gamma,sigma_gamma
1e-07,-0.0009791553549087784,4.9993455667840125
1.1097524964120721e-07,-0.0010866200926022973,4.999345517598701
1.2315506032928263e-07,-0.0012058793542337742,4.999345457024504
1.3667163564620074e-07,-0.0013382276152791306,4.999345382424322
1.5167168884709241e-07,-0.0014851014284134045,4.9993452905504325
1.6831803533309585e-07,-0.0016480950018018525,4.999345177403103
1.867913599020781e-07,-0.0018289775250890372,4.999345038056462
2.0729217795953698e-07,-0.002029712344839396,4.999344866444053
2.300430119772917e-07,-0.002252478301182137,4.999344655094737
2.5529080682395163e-07,-0.0024996933627936535,4.9993443948074345
2.833096101839324e-07,-0.0027740408710137388,4.999344074250562
3.1440354715915e-07,-0.003078498678830144,4.9993436794687245
3.489101213406774e-07,-0.0034163714534418688,4.999343193275171
3.872038781812557e-07,-0.0037913265560591825,4.9993425945036005
4.2970047043208437e-07,-0.004207433847557063,4.999341857086711
4.768611697714474e-07,-0.004669209859802237,4.999340948921396
5.291978735958437e-07,-0.005181666807408725,4.999339830471226
5.872786613189477e-07,-0.005750367003320989,4.999338453045329
6.517339604882421e-07,-0.006381483220428308,4.999336756678787
7.232633896483533e-07,-0.007081865681742627,4.999334667522328
8.026433522257174e-07,-0.007859116407022526,4.9993320946276905
8.907354638610439e-07,-0.008721671711359846,4.999328925988739
9.884959046625586e-07,-0.009678893754635709,4.999325023666244
1.096985797892384e-06,-0.01074117213287451,4.999320217783924
1.217382727739662e-06,-0.0119200366097445,4.9993142991350235
1.3509935211980278e-06,-0.013228282211109388,4.9993070100776436
1.499268432786047e-06,-0.014680108032717243,4.999298033322892
1.6638168860761274e-06,-0.016291271258868534,4.999286978129089
1.8464249428955464e-06,-0.0180792580594904,4.99927336330154
2.049074689815846e-06,-0.020063473199158466,4.999256596260331
2.2739657523579273e-06,-0.022265450401896203,4.999235947267504
2.523539170434766e-06,-0.024709085730620473,4.999210517695795
2.800503894183631e-06,-0.02742089646902457,4.999179200964574
3.107866187782014e-06,-0.030430308277850315,4.999140634452143
3.4489622604057595e-06,-0.033769973665442876,4.999093140306661
3.827494478516315e-06,-0.037476125133267146,4.9990346526007405
4.247571552536894e-06,-0.04158896669974865,4.99896262769485
4.713753134116729e-06,-0.04615310786780924,4.9988739339589365
5.2310993080562585e-06,-0.05121804448390321,4.998764716132132
5.805225516094895e-06,-0.05683869134742281,4.998630228534025
6.44236350872137e-06,-0.06307597185069369,4.998464630044827
7.149428986597577e-06,-0.06999747033439974,4.998260732210158
7.934096665797492e-06,-0.07767815324737626,4.998009689896347
8.804883581643465e-06,-0.08620116552202717,4.997700621659201
9.771241535346501e-06,-0.09565870883460548,4.997320144204144
1.0843659686896109e-05,-0.10615300847842946,4.996851802025784
1.2033778407775906e-05,-0.1177973753850381,4.996275369451158
1.3354515629298974e-05,-0.1307173692352137,4.995565997707036
1.48202070579886e-05,-0.14505206741816323,4.994693174329928
1.6446761779946626e-05,-0.1609554425114652,4.993619456183407
1.8251834943190462e-05,-0.17859784771195564,4.992298930592309
2.0255019392306664e-05,-0.19816760459497118,4.990675351558588
2.2478058335487252e-05,-0.21987268023542583,4.98867989042431
2.4945081352303165e-05,-0.24394243012216066,4.986228432289673
2.7682866303920665e-05,-0.27062936843537955,4.983218342789906
3.072112998861759e-05,-0.3002109067947458,4.979524624012957
3.409285069746814e-05,-0.33299097494807484,4.974995376787808
3.783462617131933e-05,-0.36930140022491287,4.9694464890560806
4.1987070844439056e-05,-0.40950287492182724,4.962655482123605
4.659525668664687e-05,-0.4539852801106008,4.954354468327637
5.170920242896755e-05,-0.5031670588377892,4.94422221319574
5.7384416483024044e-05,-0.5574932400776333,4.931875353760453
6.368249944718586e-05,-0.6174316071394514,4.91685891195984
7.067181273927492e-05,-0.6834663822371567,4.898636358834569
7.842822061337681e-05,-0.7560886674486937,4.876579640100534
8.703591361485166e-05,-0.8357827498996357,4.849959769704472
9.658832241158708e-05,-0.9230072597110848,4.8179388312325395
0.00010718913192051276,-1.0181700834370986,4.779564493725384
0.00011895340673703195,-1.121595911148006,4.733768447902965
0.0001320088400831418,-1.2334853678228228,4.6793704565738725
0.00014649713983072864,-1.353864892231286,4.615089995207107
0.0001625755666443795,-1.4825269274324455,4.539567667753734
0.00018041864093920718,-1.618960626419721,4.451398696990319
0.00020022003718155845,-1.7622741988329835,4.349180775053902
0.0002221946860939524,-1.9111112616510582,4.231578320972071
0.0002465811075822604,-2.0635651129450707,4.097404810739734
0.0002736439997074672,-2.217096689601931,3.9457242096311216
0.00030367711180354605,-2.368464008792216,3.775971767779154
0.00033700643292719284,-2.5136729725827536,3.588093621981697
0.0003739937302478798,-2.6479613026440347,3.382703892702597
0.0004150404757850477,-2.7658287554004346,3.1612575152887605
0.00046059220411451084,-2.861127264908646,2.926236865105802
0.0005111433483440171,-2.927223849344955,2.6813500513900714
0.0005672426068491978,-2.9572465702058253,2.431735823393076
0.0006294988990221888,-2.9444191961993056,2.1841576824882396
0.0006985879746785249,-2.8824832777681877,1.947128720783276
0.0007752597488629464,-2.766197107521293,1.7308006139870733
0.000860346441668451,-2.5918898704130697,1.5462344549500457
0.0009547716114208065,-2.3580369213959784,1.4034494736278087
0.001059560179277617,-2.0658097440955316,1.3079797432883802
0.0011758495540521582,-1.7195433367669466,1.2573106311365738
0.0013049019780144017,-1.327056449434167,1.2402320858894151
0.001448118227674533,-0.8997583050768299,1.240374623102054
0.0016070528182616384,-0.45248109018575633,1.2412641191680078
0.0017834308769319094,-0.002992034722410608,1.2297545046313931
0.0019791668678535573,0.428837089893932,1.197232780701356
0.002196385372416547,0.8221923389210133,1.1395127148742448
0.002437444150122222,1.156761425325385,1.056252047059507
0.002704959730463137,1.4143657356398762,0.9502719535632127
0.0030018358135755923,1.5806462632899638,0.8268841051457773
0.003331294787934677,1.6466361630300526,0.6932650649908967
0.0036969127071950323,1.6100339812837774,0.5579185975879404
0.00410265810582719,1.475993161147926,0.43033181106976975
0.004552935074866948,1.2572692862231634,0.32097086431561656
0.00505263106533568,0.9736181121916161,0.24114393416772315
0.005607169938205458,0.6504125284263864,0.1990616583367071
0.006222570836730231,0.31653895443014335,0.18874869161285462
0.006905513520162331,0.0017331631242996082,0.19071483007551948
0.007663410868007463,-0.2663910503179068,0.18911706611823448
0.008504489341802686,-0.46529426009510644,0.17774850113992394
0.009437878277775391,-0.5800809220818337,0.15672376610349686
0.010473708979594508,-0.6053300637577195,0.12942438997015973
0.011623224686798541,-0.545890671928646,0.10093972474330237
0.01289890261253308,-0.4164545653766254,0.07722214167825608
0.014314589375234785,-0.23986881189921405,0.06355658056945074
0.015885651294280528,-0.04432139442360494,0.06014306984060189
0.01762914118095948,0.14029574888991192,0.060909257176369455
0.01956398343517065,0.286399503442226,0.06020656402400187
0.021711179456945052,0.37256769549276214,0.05598490099448512
0.02409403560239527,0.38667703395185526,0.04893607496470368
0.026738416158399492,0.3278388866165187,0.041279845683011594
0.029673024081888724,0.20679036038927734,0.03563528212558278
0.032929712550971546,0.04460746572294738,0.03334111608195375
0.036543830709572546,-0.13014793550246395,0.03330819223419963
0.040554607358408275,-0.28549181908601895,0.033440878085052854
0.04500557675700498,-0.3907335133990273,0.032345807341412
0.0499450511585514,-0.42115743621252477,0.029974974829923576
0.05542664520663107,-0.36196068112622015,0.027262238788249092
0.06150985788580504,-0.21082331784418784,0.025086392841932353
0.06826071834272393,0.021320880710845813,0.024377713425326148
0.0757525025877192,0.31147767195943743,0.02439499389863669
0.08406652885618333,0.6276100791292265,0.024438558124746816
0.09329304026284696,0.9330506247642916,0.023863448050089414
0.10353218432956637,1.191649812302785,0.022779650763190128
0.11489510001873086,1.3728767847060226,0.021716177617067806
0.1275051240713013,1.4560883388039656,0.020911081723659637
0.1414991297434576,1.4333112522144802,0.020580322546231284
0.15702901247293774,1.3101202886318788,0.020712134453654687
0.17426333860096507,1.104501092020655,0.02064449066823617
0.19338917504552322,0.8439115537330508,0.020195726194464084
0.21461411978584058,0.5610417297866661,0.019835705778998756
0.23816855519761607,0.2889720108069014,0.01909689637024405
0.2643081486974108,0.05650840763701126,0.018891635715999368
0.29331662783900486,-0.11557958848425187,0.01871483213369158
0.32550885998350565,-0.21686748595675454,0.018944464350561987
0.36123426997094304,-0.2478418290556874,0.018874920469707995
0.40088063288984643,-0.21873709333885927,0.018716925978397872
0.4448782831127585,-0.14694431764655747,0.018241194784670848
0.4937047852839004,-0.05351521020929795,0.017972297998873062
0.5478901179593945,0.040593400757643394,0.018031574268695713
0.6080224261649427,0.11788769924896769,0.01826773762547665
0.67475440531107,0.16678214009152725,0.018204539023633906
0.748810385759003,0.18278593650029507,0.01803037911070385
0.8309941949353403,0.16834151423245203,0.01790024969152406
0.9221978823334341,0.1314716723136371,0.017725510692685676
1.0234114021054528,0.08359243677114137,0.017661316352804296
1.135733358343105,0.03696892061998369,0.017955482661491984
1.2603829296797273,0.002314717356057372,0.018204030342084905
1.3987131026472386,-0.013036330317845568,0.01818795006580555
1.552225357427048,-0.006103633226302918,0.01814039146169568
1.7225859653987874,0.021715624287026003,0.018080950037975364
1.9116440753857036,0.06547450218204176,0.01801670268249343
2.121451784910632,0.11810408280143747,0.018067830643369275
2.35428641432242,0.17209405200264882,0.018357521017677503
2.612675225563332,0.2210608641617,0.018777475386785016
2.8994228538828812,0.26089384072838584,0.018984477133116906
3.2176417502507353,0.29028247151654796,0.018976429988683288
3.5707859649004625,0.31057176606555004,0.018868013369240166
3.9626886387014784,0.3250358369368769,0.01890596143888321
4.397603609302721,0.33777425342123024,0.01948355938117725
4.880251583654434,0.3525001196030644,0.02001884250895946
5.415871378079476,0.3714937465665571,0.02042302455217884
6.010276782070388,0.39494418087633676,0.020691078647884352
6.669919663030129,0.420806796708348,0.020631038359091323
7.401959996915652,0.44519028280410566,0.020650810005378637
8.214343584919439,0.4631750231819751,0.021022514553818338
9.115888299750837,0.46987916315629263,0.022142588804492807
10.11637979766207,0.46154419426602544,0.023531087668796805
11.226677735108158,0.43641515815033927,0.024227315164753488
12.458833642950081,0.3952382992320054,0.024469612012984216
13.826221737646593,0.3412794476862473,0.024356236662879352
15.343684089300131,0.27986225722997915,0.024636804193818716
17.02769172225898,0.2175174542608147,0.02588839524570128
18.896523396912116,0.16090520964644384,0.02853090163703371
20.970464013232306,0.11571043809817638,0.031219135653300003
23.27202478960412,0.08571009218576364,0.03313821027943369
25.826187606826746,0.07217462471453473,0.03355317873189541
28.66067616948256,0.07370150751376059,0.03320845633412222
31.80625692794119,0.08650012977159349,0.033993660603780576
35.297073027306574,0.10506930903648026,0.03782620615974434
39.17101490809261,0.1231446200836217,0.0446150243892761
43.47013158125035,0.13475289097550558,0.052336600306169934
48.241087041653735,0.1352006629385869,0.05832993345628591
53.535666774107185,0.12184187641832978,0.060927809549537255
59.411339849650396,0.09451236199674895,0.060542873692126055
65.93188271333541,0.05557617982412921,0.06073401553563023
73.16807143427206,0.009591049107257277,0.06821207841663676
81.19844993184009,-0.03734318773786072,0.0867891734711566
90.11018251665037,-0.07844627081794897,0.11337614926025873
100.0,-0.10719894363865023,0.14203166750283064
