tau,gamma,sigma_gamma
1e-07,0.277598479865901,0.7765540587870652
1.1097524964120721e-07,0.20907870342648494,0.6496491465886353
1.2315506032928263e-07,0.13300239450427398,0.5347348615195884
1.3667163564620074e-07,0.05404700402846174,0.4427385790087578
1.5167168884709241e-07,-0.02284313794348236,0.3823964126565692
1.6831803533309585e-07,-0.09282005411660066,0.3544695660069176
1.867913599020781e-07,-0.15150964008876144,0.3487669193607832
2.0729217795953698e-07,-0.19536900092271026,0.3504772748700804
2.300430119772917e-07,-0.22198810070267427,0.3482796646306352
2.5529080682395163e-07,-0.23030306491182273,0.3367393369141248
2.833096101839324e-07,-0.2206952799165265,0.3152454242924355
3.1440354715915e-07,-0.19496078600741384,0.2865068368094668
3.489101213406774e-07,-0.15614744121967306,0.2553384160601556
3.872038781812557e-07,-0.10827158355232314,0.22746026960907648
4.2970047043208437e-07,-0.05593977669786909,0.20774953893915804
4.768611697714474e-07,-0.003912921094070043,0.19796054842468025
5.291978735958437e-07,0.043342090648820886,0.19570835094774108
5.872786613189477e-07,0.08206516350946913,0.19631049055510305
6.517339604882421e-07,0.1095351416165613,0.19563618543339195
7.232633896483533e-07,0.12428482309314859,0.19158034677040475
8.026433522257174e-07,0.12617584690178774,0.18413331285411333
8.907354638610439e-07,0.11632722735612333,0.17482607458191954
9.884959046625586e-07,0.0969092730729244,0.1659123238221474
1.096985797892384e-06,0.07083137342578993,0.1593777205804426
1.217382727739662e-06,0.04136531990388903,0.1560351897147262
1.3509935211980278e-06,0.011753508244510158,0.155241138911845
1.499268432786047e-06,-0.015147686552154482,0.15546391012967792
1.6638168860761274e-06,-0.03714514214971132,0.15520659804148987
1.8464249428955464e-06,-0.05287494503863854,0.1536488113784249
2.049074689815846e-06,-0.06184207467777014,0.1508132733689842
2.2739657523579273e-06,-0.06433778147857083,0.1473694649189264
2.523539170434766e-06,-0.061256797202076996,0.14422930266435824
2.800503894183631e-06,-0.05385106901212566,0.1420925210938663
3.107866187782014e-06,-0.04346530186376185,0.14113723357782879
3.4489622604057595e-06,-0.031300774021474354,0.14101134608959812
3.827494478516315e-06,-0.018247360882014618,0.14109768325915323
4.247571552536894e-06,-0.004810419677596656,0.1408556179125939
4.713753134116729e-06,0.008858744939971075,0.14004808192745663
5.2310993080562585e-06,0.022839747946818534,0.1387824897701785
5.805225516094895e-06,0.03725623367154185,0.13739470735498757
6.44236350872137e-06,0.05206731196358305,0.1362523947914128
7.149428986597577e-06,0.06688526773359627,0.13557321982293258
7.934096665797492e-06,0.08086470163561899,0.13534230490322774
8.804883581643465e-06,0.09269690747805726,0.13535767213416106
9.771241535346501e-06,0.10072494744235883,0.13535988788149664
1.0843659686896109e-05,0.10317240920539916,0.13516410075625623
1.2033778407775906e-05,0.09845594917169365,0.13473051218493043
1.3354515629298974e-05,0.08553245278926624,0.13415460553875871
1.48202070579886e-05,0.06421960442185082,0.13359684488039528
1.6446761779946626e-05,0.03542646707228414,0.13319411702449788
1.8251834943190462e-05,0.0012394258465064922,0.13299698209977268
2.0255019392306664e-05,-0.035172131303625065,0.13295921688639162
2.2478058335487252e-05,-0.06983918418154644,0.1329763233621543
2.4945081352303165e-05,-0.09844354356300755,0.1329453748069257
2.7682866303920665e-05,-0.11688359940580995,0.1328129162080511
3.072112998861759e-05,-0.1218795668646635,0.13259074044911942
3.409285069746814e-05,-0.11152866554812135,0.13233777779101244
3.783462617131933e-05,-0.08572005118685411,0.13212328822680044
4.1987070844439056e-05,-0.046332898336913786,0.13199123577949912
4.659525668664687e-05,0.002832352095083479,0.13194313767549107
5.170920242896755e-05,0.05640320125530707,0.13194431232120224
5.7384416483024044e-05,0.10803726845620076,0.13194662680857724
6.368249944718586e-05,0.15121012387930932,0.13191370678112094
7.067181273927492e-05,0.18008909801449136,0.13183574827717398
7.842822061337681e-05,0.19037383223849247,0.13172928479295118
8.703591361485166e-05,0.17998127977750755,0.1316242700029994
9.658832241158708e-05,0.1494676879912049,0.13154708489482994
0.00010718913192051276,0.10211154332671413,0.13150836916019346
0.00011895340673703195,0.043625739098047234,0.13150041010244892
0.0001320088400831418,-0.0184815499094384,0.1315039519163125
0.00014649713983072864,-0.0758268157733255,0.13149934561767898
0.0001625755666443795,-0.12023821506727472,0.13147586244966325
0.00018041864093920718,-0.1448668543500844,0.13143503664860434
0.00020022003718155845,-0.14516972159754005,0.13138763734176062
0.0002221946860939524,-0.11962303841346511,0.13134685654634737
0.0002465811075822604,-0.07005669242721524,0.13132133493971
0.0002736439997074672,-0.001548936829522063,0.13131188989054587
0.00030367711180354605,0.07812064376435046,0.13131241097847574
0.00033700643292719284,0.1594008472504811,0.1313139874906346
0.0003739937302478798,0.23216750271080855,0.13130946047424066
0.0004150404757850477,0.28703691774921936,0.13129650971179074
0.00046059220411451084,0.31661999742573244,0.13127769823417318
0.0005111433483440171,0.31654665119094716,0.13125838999820538
0.0005672426068491978,0.2861176044248168,0.13124365591503148
0.0006294988990221888,0.22848862138062032,0.131236072824968
0.0006985879746785249,0.15035408576886766,0.13123493219921292
0.0007752597488629464,0.06116441648032378,0.1312372577540633
0.000860346441668451,-0.028024475869870002,0.13123936536066225
0.0009547716114208065,-0.10592055494043962,0.13123875445520408
0.001059560179277617,-0.16240386964022946,0.1312345890080292
0.0011758495540521582,-0.1897874027592934,0.1312279525659583
0.0013049019780144017,-0.18376379549454214,0.13122098225364415
0.001448118227674533,-0.14391372830414184,0.13121587367606552
0.0016070528182616384,-0.07371149418304412,0.13121423998477438
0.0017834308769319094,0.019968092835370044,0.13121658190210497
0.0019791668678535573,0.12776950498619044,0.13122218434470245
0.002196385372416547,0.2390736221896077,0.13122926560763676
0.002437444150122222,0.34334374334139284,0.13123557127530253
0.002704959730463137,0.43141690103539077,0.13123907877914137
0.0030018358135755923,0.4965675910370919,0.13123907995700795
0.003331294787934677,0.5352058672988278,0.1312366721859021
0.0036969127071950323,0.5471255570141693,0.13123471623351035
0.00410265810582719,0.5352832423209293,0.1312368632307877
0.004552935074866948,0.5051552189847826,0.13124580503329986
0.00505263106533568,0.4637782956483534,0.13126169425171413
0.005607169938205458,0.41862269120201745,0.13128132072811324
0.006222570836730231,0.37646551548095886,0.1312994115605376
0.006905513520162331,0.34242875901554726,0.1313108568952627
0.007663410868007463,0.31931739454830677,0.13131389041559796
0.008504489341802686,0.30734559262464245,0.13131188409327468
0.009437878277775391,0.30427943438644434,0.13131254899607636
0.010473708979594508,0.30596180723250654,0.131324694105668
0.011623224686798541,0.3071286789822807,0.131353360827341
0.01289890261253308,0.3023839266597861,0.13139624477612052
0.014314589375234785,0.28717837190106366,0.13144342014044355
0.015885651294280528,0.2586405679139716,0.13148164866019083
0.01762914118095948,0.2161316071683359,0.13150139451661413
0.01956398343517065,0.16143980547076353,0.13150331393435996
0.021711179456945052,0.09858683611719243,0.13150028591783303
0.02409403560239527,0.033276276060860255,0.13151272894355553
0.026738416158399492,-0.027930332981213724,0.13155851892308973
0.029673024081888724,-0.07858395094149273,0.13164226027820808
0.032929712550971546,-0.11331748039856393,0.13174987926098228
0.036543830709572546,-0.1286673299798622,0.13185314647537427
0.040554607358408275,-0.12362292458237789,0.1319232761298792
0.04500557675700498,-0.0998210463083069,0.13194801325588087
0.0499450511585514,-0.061355039083082374,0.13194250495715
0.05542664520663107,-0.014226125762661468,0.13194691142916068
0.06150985788580504,0.034483165754863876,0.132008865509557
0.06826071834272393,0.07759296058407017,0.1321576904150504
0.0757525025877192,0.10882445422794262,0.13238381537685828
0.08406652885618333,0.12366863646138881,0.13263653637623168
0.09329304026284696,0.12000105042420728,0.1328455250352695
0.10353218432956637,0.09835611115022402,0.1329580786770969
0.11489510001873086,0.06182443141369731,0.1329741050848503
0.1275051240713013,0.015591182748721621,0.13295855636152776
0.1414991297434576,-0.03381526782345645,0.13301903280056668
0.15702901247293774,-0.07945473733207109,0.1332535664735004
0.17426333860096507,-0.1149528553592063,0.13369206157154534
0.19338917504552322,-0.13538667596731102,0.13426539023345962
0.21461411978584058,-0.13795531321216004,0.13482620970899187
0.23816855519761607,-0.12234512208669912,0.1352194079108933
0.2643081486974108,-0.09074356517953674,0.13537067724418064
0.29331662783900486,-0.04750601296177592,0.13534832726627619
0.32550885998350565,0.001471924815177772,0.13535887420825352
0.36123426997094304,0.04958412831751957,0.13566205028392742
0.40088063288984643,0.0904274343704401,0.1364334145189203
0.4448782831127585,0.11867171518929354,0.1376442973840975
0.4937047852839004,0.1307684510902618,0.13903907202583454
0.5478901179593945,0.12540467331837135,0.14024044280440806
0.6080224261649427,0.10364615012372269,0.14094131491148396
0.67475440531107,0.06875719493154975,0.14109350908739507
0.748810385759003,0.025728320537155014,0.14099931184815595
0.8309941949353403,-0.019418810162505906,0.14123595816449988
0.9221978823334341,-0.060452010719245663,0.14239801249962172
1.0234114021054528,-0.09176380580879595,0.14475286928533493
1.135733358343105,-0.1091115631552384,0.14801457026565135
1.2603829296797273,-0.11016836184853673,0.15141330860062563
1.3987131026472386,-0.09481761484380513,0.15404697284002764
1.552225357427048,-0.06515921530399282,0.1553400951074572
1.7225859653987874,-0.025232474132963034,0.15542066475359498
1.9116440753857036,0.01950355722283348,0.15526121832986836
2.121451784910632,0.06286298814802649,0.15642769210251173
2.35428641432242,0.09871082999393366,0.16035615953721272
2.612675225563332,0.12172983993832531,0.1674395141752967
2.8994228538828812,0.12808528899654448,0.17659909460751652
3.2176417502507353,0.1159117223019166,0.18572179779326764
3.5707859649004625,0.08556926350365757,0.19261716779191995
3.9626886387014784,0.03964545049825574,0.19598541956579704
4.397603609302721,-0.017291672184001072,0.19619510318817168
4.880251583654434,-0.07915597881014946,0.19576402105520097
5.415871378079476,-0.1389657306326626,0.19909131810774114
6.010276782070388,-0.18955578263194184,0.21066219017167728
6.669919663030129,-0.22430295758090324,0.23214894020413418
7.401959996915652,-0.23779038314501122,0.2610645853462572
8.214343584919439,-0.22634667897000327,0.29220579691421494
9.115888299750837,-0.18841200249107715,0.3199122018398534
10.11637979766207,-0.12470290441910947,0.33967684387051533
11.226677735108158,-0.038169283323213676,0.3493089612628652
12.458833642950081,0.0662428836694744,0.3501968149962029
13.826221737646593,0.1819919356637456,0.34883704108964786
15.343684089300131,0.3014599947703118,0.35755727187965636
17.02769172225898,0.416539837875348,0.39104204833810735
18.896523396912116,0.5192354634480125,0.4576612721328345
20.970464013232306,0.602225802263888,0.5547163609466981
23.27202478960412,0.6593485254352345,0.6726921479554869
25.826187606826746,0.6859715602613505,0.8006543940420481
28.66067616948256,0.6792323687866428,0.9285171830716845
31.80625692794119,0.638137902606843,1.047619092082781
35.297073027306574,0.5635301808469535,1.1509625289326368
39.17101490809261,0.4579326472498906,1.2335002704900848
43.47013158125035,0.3253001575162102,1.2925022904163639
48.241087041653735,0.17070027223516604,1.3279752553866664
53.535666774107185,-4.455236029343723e-05,1.3431001937055913
59.411339849650396,-0.18072503439623233,1.3446094779019913
65.93188271333541,-0.36509752485471836,1.3428820116897988
73.16807143427206,-0.5471995858080163,1.351280898219954
81.19844993184009,-0.7216130186790792,1.3841131204698738
90.11018251665037,-0.8836646401592247,1.4531708657648237
100.0,-1.0295608867693886,1.564322803788065
