tau,gamma,sigma_gamma
1e-07,0.8065005976899897,1.091004223956248
1.1097524964120721e-07,0.7790800390312711,0.97714670085729
1.2315506032928263e-07,0.7164652007028849,0.8560335918583951
1.3667163564620074e-07,0.623276571581016,0.7360738772279071
1.5167168884709241e-07,0.5058257054748196,0.6268839300367788
1.6831803533309585e-07,0.37175923633731145,0.5383144372038362
1.867913599020781e-07,0.22959085881177543,0.47790851978415705
2.0729217795953698e-07,0.08815198776386524,0.44675884798518817
2.300430119772917e-07,-0.04399896671833403,0.43749905057184346
2.5529080682395163e-07,-0.15916263204340453,0.43816187882844265
2.833096101839324e-07,-0.2510317526129029,0.43813598730853454
3.1440354715915e-07,-0.3151253456698271,0.43106493393161094
3.489101213406774e-07,-0.3490848015936763,0.41484719268937575
3.872038781812557e-07,-0.3528037685204026,0.39067652230333005
4.2970047043208437e-07,-0.3283778744732615,0.36201769169786585
4.768611697714474e-07,-0.2798764967394334,0.33357562228248877
5.291978735958437e-07,-0.21295530621659964,0.31003304117188235
5.872786613189477e-07,-0.13434349317176952,0.29448596966270313
6.517339604882421e-07,-0.05125178933261054,0.2871817368227672
7.232633896483533e-07,0.029244732428708176,0.2856233853738085
8.026433522257174e-07,0.10079252036871367,0.286111320640147
8.907354638610439e-07,0.15826060909614625,0.2854706171069735
9.884959046625586e-07,0.19811198974406352,0.28198322632969297
1.096985797892384e-06,0.2186135777905065,0.2755133537874697
1.217382727739662e-06,0.21986953283027333,0.26716165384027674
1.3509935211980278e-06,0.2036806715620969,0.25867518842242804
1.499268432786047e-06,0.17325028884431504,0.25174226948585
1.6638168860761274e-06,0.13277194836166473,0.24735056762244328
1.8464249428955464e-06,0.08694605747541573,0.24546989834024324
2.049074689815846e-06,0.040478075283999715,0.24521918420401612
2.2739657523579273e-06,-0.00238861744105634,0.24538164525384865
2.523539170434766e-06,-0.03825780140016377,0.24494401770512522
2.800503894183631e-06,-0.06484683620919895,0.24342026735175507
3.107866187782014e-06,-0.08111239080108135,0.24090615909315696
3.4489622604057595e-06,-0.08723016090709734,0.23792259784612765
3.827494478516315e-06,-0.08444007045432045,0.23514048334298795
4.247571552536894e-06,-0.07478342940180482,0.23309248928701023
4.713753134116729e-06,-0.06076990892461254,0.23197899854304307
5.2310993080562585e-06,-0.04501870082458481,0.23163904686614242
5.805225516094895e-06,-0.029919160359213492,0.23167734777322735
6.44236350872137e-06,-0.0173515893578724,0.23166410877115792
7.149428986597577e-06,-0.008499289318251613,0.23130746138441102
7.934096665797492e-06,-0.003769897812162526,0.23053610546102768
8.804883581643465e-06,-0.0028290536290569435,0.22948152968581306
9.771241535346501e-06,-0.004734575675684027,0.2283870482565137
1.0843659686896109e-05,-0.008146514779809877,0.22749004473852644
1.2033778407775906e-05,-0.011579291143334558,0.22692644766938225
1.3354515629298974e-05,-0.013657808124889925,0.22669215534637555
1.48202070579886e-05,-0.013340427680077482,0.2266683539574788
1.6446761779946626e-05,-0.010077776064008503,0.22668911009889026
1.8251834943190462e-05,-0.003886601108206378,0.22661521167443904
2.0255019392306664e-05,0.00466916221239444,0.2263831572508075
2.2478058335487252e-05,0.01458419371670061,0.22601492988224592
2.4945081352303165e-05,0.02458589202933581,0.22559243273200016
2.7682866303920665e-05,0.03334849144107466,0.2252130710427633
3.072112998861759e-05,0.039713466309422074,0.22494715082895259
3.409285069746814e-05,0.042882100757196895,0.224813773190709
3.783462617131933e-05,0.04255076596109575,0.22478177623467607
4.1987070844439056e-05,0.03896845899885193,0.22479090238589633
4.659525668664687e-05,0.032908165289427416,0.2247808400611494
5.170920242896755e-05,0.0255568180427872,0.2247149045958605
5.7384416483024044e-05,0.018341068264362548,0.2245898711042914
6.368249944718586e-05,0.012715883678083628,0.22443067247146706
7.067181273927492e-05,0.00994868709972252,0.22427488411233695
7.842822061337681e-05,0.010932458748357021,0.2241550131359191
8.703591361485166e-05,0.016056841003774025,0.2240860544760607
9.658832241158708e-05,0.025157445232707687,0.22406238059085806
0.00010718913192051276,0.037551591382907645,0.22406354082473517
0.00011895340673703195,0.05215541609823049,0.22406497043255794
0.0001320088400831418,0.06766467910279061,0.22404841478809218
0.00014649713983072864,0.08277160292277586,0.2240079001386992
0.0001625755666443795,0.09638423389219497,0.22394971855502738
0.00018041864093920718,0.10781402840598275,0.2238875157243381
0.00020022003718155845,0.11690179854463167,0.2238353615177741
0.0002221946860939524,0.12406115627982217,0.22380192382096406
0.0002465811075822604,0.13023083996608875,0.22378786003500922
0.0002736439997074672,0.1367409574870635,0.22378690908183313
0.00030367711180354605,0.14511120006955025,0.22378954251175154
0.00033700643292719284,0.15680948602266653,0.22378725502592078
0.0003739937302478798,0.17300577387095473,0.2237757010800268
0.0004150404757850477,0.19435694268850057,0.2237556129482728
0.00046059220411451084,0.2208545612402304,0.22373157292273319
0.0005111433483440171,0.2517586482729257,0.22370951228133398
0.0005672426068491978,0.28562848849560396,0.22369411421653376
0.0006294988990221888,0.32044800331277656,0.22368716865485952
0.0006985879746785249,0.3538300813920614,0.22368730661453096
0.0007752597488629464,0.38327354773582556,0.22369097844045566
0.000860346441668451,0.4064395981963571,0.2236941039124478
0.0009547716114208065,0.4214124455820638,0.22369365924305454
0.001059560179277617,0.4269117764229122,0.22368864723056767
0.0011758495540521582,0.4224318276769736,0.22368022889928707
0.0013049019780144017,0.4082922548523129,0.2236710646333789
0.001448118227674533,0.3855978490273628,0.2236642205405721
0.0016070528182616384,0.35611578709085734,0.22366201374484332
0.0017834308769319094,0.3220888126979844,0.22366519456613168
0.0019791668678535573,0.286009273763284,0.2236726849276002
0.002196385372416547,0.2503815807474439,0.2236819456199189
0.002437444150122222,0.21749934353238132,0.22368989904688738
0.002704959730463137,0.18925876234402494,0.22369408972977395
0.0030018358135755923,0.16702285243309234,0.2236937265500488
0.003331294787934677,0.15154312087815924,0.2236902212297445
0.0036969127071950323,0.14293777130728813,0.22368688948400428
0.00410265810582719,0.14071956328052693,0.22368784752312013
0.004552935074866948,0.14386286455169284,0.22369634964347532
0.00505263106533568,0.15089844725639523,0.2237132232718182
0.005607169938205458,0.16002589152617475,0.22373607392275238
0.006222570836730231,0.16923631383679094,0.22375982625933646
0.006905513520162331,0.1764414896197195,0.22377858567355763
0.007663410868007463,0.17960819013046603,0.22378832218900085
0.008504489341802686,0.17689778176782056,0.22378921319799558
0.009437878277775391,0.16681030815129816,0.22378652089185694
0.010473708979594508,0.14832937493838472,0.22378922794211825
0.011623224686798541,0.12105972023505274,0.2238065902834722
0.01289890261253308,0.08534438774086084,0.22384380963961192
0.014314589375234785,0.04234423113894081,0.22389871057163943
0.015885651294280528,-0.005939581103348246,0.22396131190747867
0.01762914118095948,-0.056718198945873155,0.22401710969775895
0.01956398343517065,-0.10655592158036598,0.22405331578448565
0.021711179456945052,-0.15160336043913958,0.22406566789017734
0.02409403560239527,-0.1879150919589847,0.22406260115762633
0.026738416158399492,-0.21183042594702783,0.22406417010219146
0.029673024081888724,-0.22038284475411274,0.22409503550560203
0.032929712550971546,-0.21169330535440167,0.2241736321090776
0.036543830709572546,-0.18529704956654314,0.22430195275717504
0.040554607358408275,-0.1423544497297371,0.22446120795616467
0.04500557675700498,-0.08570450822617204,0.22461676431608402
0.0499450511585514,-0.019734674808205455,0.22473201171395915
0.05542664520663107,0.04993871612487055,0.2247862851065321
0.06150985788580504,0.11696121467457488,0.22478906047468367
0.06826071834272393,0.17486003720341614,0.2247826388460909
0.0757525025877192,0.21772990048430074,0.22482942871376208
0.08406652885618333,0.24090766768586036,0.22498643155601777
0.09329304026284696,0.24155333779981447,0.22527658911600057
0.10353218432956637,0.21906020447386254,0.22567058811803106
0.11489510001873086,0.17523290795179491,0.22609054243814095
0.1275051240713013,0.11419719162131514,0.2264383754427601
0.1414991297434576,0.04203665684008229,0.22664026198624315
0.15702901247293774,-0.03381417325772418,0.2266890842325351
0.17426333860096507,-0.10535904878224756,0.2266643994895064
0.19338917504552322,-0.16492419175847317,0.22671515851862545
0.21461411978584058,-0.20603447114444862,0.22700443565215558
0.23816855519761607,-0.22417535222029983,0.22763399298137454
0.2643081486974108,-0.21734477653217255,0.22858202038585113
0.29331662783900486,-0.18632215406523756,0.22968878952029356
0.32550885998350565,-0.1346147336098511,0.23070730150724553
0.36123426997094304,-0.06808071795921933,0.23140625237883397
0.40088063288984643,0.005731353474402567,0.23168664385395613
0.4448782831127585,0.07845143969916535,0.23166229538769015
0.4937047852839004,0.1418624767707115,0.2316601418286483
0.5478901179593945,0.1888634613674185,0.23211860095353493
0.6080224261649427,0.21430427059794965,0.23340374123942176
0.67475440531107,0.21559027806506492,0.23561501473272567
0.748810385759003,0.19298269075125063,0.2384825987250982
0.8309941949353403,0.1495577985278942,0.24142923915655398
0.9221978823334341,0.09083022778577288,0.24378900715098864
1.0234114021054528,0.024086456397071743,0.24510148670666704
1.135733358343105,-0.04248996173419073,0.24537252450903219
1.2603829296797273,-0.1007952177765219,0.24519808660591416
1.3987131026472386,-0.143766487256471,0.24566204519314225
1.552225357427048,-0.1662132334099624,0.24796317999547512
1.7225859653987874,-0.1654214819095614,0.2528568386966682
1.9116440753857036,-0.14146277685540554,0.2601817844204537
2.121451784910632,-0.09717601046804702,0.2687825922821154
2.35428641432242,-0.03782975166768665,0.27690618009150814
2.612675225563332,0.029489872812519025,0.2828740876837733
2.8994228538828812,0.0966897960543065,0.2857765599510521
3.2176417502507353,0.15558235108255758,0.28602779333800127
3.5707859649004625,0.19879392574512167,0.28564619472007013
3.9626886387014784,0.2205686032793892,0.28800358449873353
4.397603609302721,0.21738116497317606,0.29672050980931186
4.880251583654434,0.18829870588797348,0.3138693685775261
5.415871378079476,0.13506071725805668,0.33862817284127134
6.010276782070388,0.061879889013653155,0.3674860114395826
6.669919663030129,-0.025003813253533735,0.39564360755407746
7.401959996915652,-0.11795841891489545,0.41854154270133137
8.214343584919439,-0.20871032629793262,0.4330624429276726
9.115888299750837,-0.28912797313387273,0.43854657019878035
10.11637979766207,-0.35195887759300604,0.4378242540778791
11.226677735108158,-0.39145047036436154,0.43810117043406366
12.458833642950081,-0.4038020726193281,0.4505785324754476
13.826221737646593,-0.38741643276125615,0.4868528609078538
15.343684089300131,-0.34294171893361636,0.5528349007592374
17.02769172225898,-0.2731161887227245,0.6459352008127686
18.896523396912116,-0.18244574250661572,0.7578915918539807
20.970464013232306,-0.0767576493406068,0.8787658549654865
23.27202478960412,0.03731892232167411,0.9991214964268745
25.826187606826746,0.15289343425729385,1.1108228261848174
28.66067616948256,0.2633272186822069,1.2073711774313498
31.80625692794119,0.36267909716139,1.2841777490710815
35.297073027306574,0.44605392284165646,1.3388696198214247
39.17101490809261,0.5098368396384103,1.3716324081956879
43.47013158125035,0.5518082525463797,1.385564055150516
48.241087041653735,0.5711454517795573,1.3869665270742664
53.535666774107185,0.568325641738852,1.3853830973356087
59.411339849650396,0.5449512681010447,1.3929922103786547
65.93188271333541,0.5035218470994778,1.4228682912317157
73.16807143427206,0.4471771313528734,1.4860644420982059
81.19844993184009,0.3794347924251724,1.588625601348748
90.11018251665037,0.30394241623525886,1.7303346647318354
100.0,0.2242591186725349,1.9058472582917214
