tau,gamma,sigma_gamma
1e-07,0.02777261444884971,0.09692800181504149
1.1097524964120721e-07,0.02570771752471046,0.08893927910246532
1.2315506032928263e-07,0.023217064738446425,0.08076870855230953
1.3667163564620074e-07,0.02039562890013258,0.0725809777932435
1.5167168884709241e-07,0.01733933295076895,0.06453685276849523
1.6831803533309585e-07,0.014143214887781141,0.056792350888772054
1.867913599020781e-07,0.010899608390673166,0.04949904658248368
2.0729217795953698e-07,0.007696378263972292,0.04280486271009373
2.300430119772917e-07,0.004615249681137357,0.03685429457747916
2.5529080682395163e-07,0.0017302691373970447,0.031784638448048755
2.833096101839324e-07,-0.000893566947297586,0.02771191943507908
3.1440354715915e-07,-0.0032014829753279628,0.02470010566151307
3.489101213406774e-07,-0.005149865077328286,0.022718122242695822
3.872038781812557e-07,-0.006706947612201475,0.021614142385196593
4.2970047043208437e-07,-0.007853226172755967,0.021142318212504858
4.768611697714474e-07,-0.008581583975228568,0.021032056337642976
5.291978735958437e-07,-0.008897125175280962,0.021051728863618342
5.872786613189477e-07,-0.008816715573630063,0.021036397514669236
6.517339604882421e-07,-0.008368238348793966,0.020887144887612483
7.232633896483533e-07,-0.007589579706746008,0.020557650964036587
8.026433522257174e-07,-0.006527366346290364,0.0200403915670964
8.907354638610439e-07,-0.0052354834710968134,0.01935481563918045
9.884959046625586e-07,-0.0037734081688540755,0.018538759690959992
1.096985797892384e-06,-0.0022043986268727167,0.017641798325122308
1.217382727739662e-06,-0.0005935841818427434,0.01671968274021433
1.3509935211980278e-06,0.000993995114640711,0.015829314706147048
1.499268432786047e-06,0.002495348383945384,0.015022992643531331
1.6638168860761274e-06,0.0038514409193339816,0.014342501473917161
1.8464249428955464e-06,0.005008996266042232,0.013813572458231125
2.049074689815846e-06,0.005922142863710178,0.013442128037318656
2.2739657523579273e-06,0.0065538576964172535,0.013214381806006061
2.523539170434766e-06,0.00687716375796299,0.013100852104925745
2.800503894183631e-06,0.006876043777083396,0.01306367808012312
3.107866187782014e-06,0.006546039501699852,0.013063441078949748
3.4489622604057595e-06,0.00589451371524774,0.013065814435583164
3.827494478516315e-06,0.004940560900649871,0.013044110581828238
4.247571552536894e-06,0.003714561966717156,0.012981210592220474
4.713753134116729e-06,0.002257388173347863,0.012869239332975067
5.2310993080562585e-06,0.0006192695163917961,0.012708742934034062
5.805225516094895e-06,-0.0011416473171266261,0.012506827602970361
6.44236350872137e-06,-0.002961016819881479,0.012275574721520636
7.149428986597577e-06,-0.004770244829614967,0.01203041740929188
7.934096665797492e-06,-0.0064986196171048505,0.011787787484492242
8.804883581643465e-06,-0.008075565755916614,0.011563035386835932
9.771241535346501e-06,-0.009432957338049164,0.011368762210341459
1.0843659686896109e-05,-0.010507423387934978,0.011213317279793966
1.2033778407775906e-05,-0.011242576473250665,0.011099950720308003
1.3354515629298974e-05,-0.01159109542004444,0.011026505068135222
1.48202070579886e-05,-0.01151659505603675,0.01098697680031846
1.6446761779946626e-05,-0.010995219778578758,0.010971746879471217
1.8251834943190462e-05,-0.010016903588166315,0.010970104666617037
2.0255019392306664e-05,-0.0085862469602489,0.010972018690713386
2.2478058335487252e-05,-0.006722970219243507,0.010968057573818597
2.4945081352303165e-05,-0.004461913966679276,0.010951526125000766
2.7682866303920665e-05,-0.0018525690795740957,0.010918607507103297
3.072112998861759e-05,0.0010418681238206773,0.010868184638758013
3.409285069746814e-05,0.0041459065855633526,0.010801614497223328
3.783462617131933e-05,0.007373614224889025,0.010722524486262725
4.1987070844439056e-05,0.010630878278789169,0.010636155260988149
4.659525668664687e-05,0.013818022933719476,0.010547887925026578
5.170920242896755e-05,0.01683272268564906,0.010463645675400366
5.7384416483024044e-05,0.01957313924913251,0.010388226531380225
6.368249944718586e-05,0.02194120064427807,0.010325505037192604
7.067181273927492e-05,0.023845934036899052,0.01027717893730685
7.842822061337681e-05,0.025206758958347564,0.010243772899238435
8.703591361485166e-05,0.025956645196856698,0.010223569124282753
9.658832241158708e-05,0.02604503972168004,0.010214166099419096
0.00010718913192051276,0.02544046997707028,0.010211872317522814
0.00011895340673703195,0.024132736256206044,0.010213119916762922
0.0001320088400831418,0.02213461421433749,0.010214349183729914
0.00014649713983072864,0.019482998975718147,0.010212347678243108
0.0001625755666443795,0.01623943536446859,0.010205233461711233
0.00018041864093920718,0.012489993435224278,0.010191977424596143
0.00020022003718155845,0.008344464963329301,0.010172405600931037
0.0002221946860939524,0.003934874260153265,0.010147409663108838
0.0002465811075822604,-0.0005866851344649149,0.010118333884762402
0.0002736439997074672,-0.005050857534001807,0.010087237724419253
0.00030367711180354605,-0.009274427364744042,0.01005606541002818
0.00033700643292719284,-0.013064250330444338,0.010026728595195008
0.0003739937302478798,-0.01622163083959549,0.010000848508513547
0.0004150404757850477,-0.01854704854463307,0.009979376300846493
0.00046059220411451084,-0.019845124325911456,0.009963146126334846
0.0005111433483440171,-0.019929706276343495,0.00995202333558088
0.0005672426068491978,-0.018628949377898607,0.009945451228253365
0.0006294988990221888,-0.01579025879823348,0.009942914947675265
0.0006985879746785249,-0.011284966345556313,0.0099436701116873
0.0007752597488629464,-0.005012612866721611,0.009946229945850649
0.000860346441668451,0.003095284273967991,0.009950124677724829
0.0009547716114208065,0.013072089461729774,0.009954250326550604
0.001059560179277617,0.024913630663377262,0.009958178446184551
0.0011758495540521582,0.03857658669767261,0.009961573706136944
0.0013049019780144017,0.053977743377799925,0.009964032850441668
0.001448118227674533,0.07099416145456416,0.009965489253757015
0.0016070528182616384,0.08946427715864047,0.009965987673691596
0.0017834308769319094,0.10918993309587677,0.00996534787265404
0.0019791668678535573,0.12993931379742207,0.009963593821435954
0.002196385372416547,0.15145073673465959,0.0099609414937973
0.002437444150122222,0.17343722756095303,0.009957510554570989
0.002704959730463137,0.19559178667941524,0.009953405639018205
0.0030018358135755923,0.2175932359368744,0.009949288868809752
0.003331294787934677,0.23911251718709536,0.009945580572829968
0.0036969127071950323,0.2598193013091077,0.009943211504034972
0.00410265810582719,0.279388756208391,0.009943146737048216
0.004552935074866948,0.29750831586352433,0.009946319259878262
0.00505263106533568,0.3138842902608303,0.009953584829579802
0.005607169938205458,0.32824815765434323,0.009965749057655434
0.006222570836730231,0.34036238624139514,0.00998291289545574
0.006905513520162331,0.35002564218211774,0.01000540660956346
0.007663410868007463,0.35707725406700774,0.010031934257664958
0.008504489341802686,0.36140082100610016,0.010061823454144978
0.009437878277775391,0.3629268711501936,0.010093032896371212
0.010473708979594508,0.36163449995365227,0.010123954114119614
0.011623224686798541,0.35755194188641326,0.010152486748052598
0.01289890261253308,0.3507560548159745,0.010176499969854832
0.014314589375234785,0.34137072297744453,0.01019481982150969
0.015885651294280528,0.3295642106049854,0.010206865323013169
0.01762914118095948,0.31554552436045924,0.01021296486239569
0.01956398343517065,0.2995598668912862,0.010214011586066017
0.021711179456945052,0.2818832865877994,0.010212828404875607
0.02409403560239527,0.2628166484455505,0.010211793591464064
0.026738416158399492,0.24267906790373672,0.010215094811329054
0.029673024081888724,0.22180096286137996,0.010226288606541652
0.032929712550971546,0.20051688875537366,0.010248843185849673
0.036543830709572546,0.17915832691596734,0.010285015809080181
0.040554607358408275,0.1580465976285268,0.010336001032106593
0.04500557675700498,0.13748606634908356,0.01040122127643912
0.0499450511585514,0.11775780415155168,0.010478841290394624
0.05542664520663107,0.09911385221494129,0.01056411808611583
0.06150985788580504,0.08177222514041205,0.01065255700381918
0.06826071834272393,0.06591276965900761,0.010738104024886405
0.0757525025877192,0.051673973799552186,0.010815211838151893
0.08406652885618333,0.03915079842408886,0.010878957489632307
0.09329304026284696,0.028393577465976705,0.010926176119520016
0.10353218432956637,0.019408007043239195,0.010955844357447972
0.11489510001873086,0.012156216881521686,0.010969554253488788
0.1275051240713013,0.006558890918313409,0.010971931250028471
0.1414991297434576,0.0024983784860523883,0.010970036722782179
0.15702901247293774,-0.00017728648708725814,0.010973278770502956
0.17426333860096507,-0.001649562751481426,0.010992229200085493
0.19338917504552322,-0.002123899050275213,0.011037496089606354
0.21461411978584058,-0.001823690983655979,0.011117875828942863
0.23816855519761607,-0.0009838496007432695,0.011239226915452823
0.2643081486974108,0.00015585767323500477,0.011402209140395053
0.29331662783900486,0.0013575282482634066,0.011602990425942534
0.32550885998350565,0.0023917417292977916,0.011831931257180748
0.36123426997094304,0.003043910796804994,0.012076443973766886
0.40088063288984643,0.003120210353699804,0.012320201980990285
0.4448782831127585,0.0024529407355657895,0.0125470572279653
0.4937047852839004,0.0009051952911249828,0.012742167142807516
0.5478901179593945,-0.0016252799141511787,0.012894027901181531
0.6080224261649427,-0.005203126491323928,0.012996533290224177
0.67475440531107,-0.00985338427562965,0.013050847831353591
0.748810385759003,-0.01556051868465147,0.013066574526219172
0.8309941949353403,-0.022268486929533537,0.013062381296547035
0.9221978823334341,-0.02988184045898379,0.013066670678473379
1.0234114021054528,-0.038267836591330706,0.01311515088387986
1.135733358343105,-0.04725950864940387,0.013247175179863738
1.2603829296797273,-0.056659621864127985,0.013499862330917047
1.3987131026472386,-0.06624542206100159,0.01390008608322986
1.552225357427048,-0.0757740663648292,0.014458134121796638
1.7225859653987874,-0.08498861007046798,0.015164696295946883
1.9116440753857036,-0.09362441199937166,0.015990264493304554
2.121451784910632,-0.10141581172410952,0.016890669226951323
2.35428641432242,-0.10810292723999737,0.017812437442201283
2.612675225563332,-0.11343841956022516,0.018698484906534942
2.8994228538828812,-0.11719407282998873,0.019493644468533987
3.2176417502507353,-0.11916704358463903,0.020150385848956696
3.5707859649004625,-0.11918564118150243,0.020633474592568927
3.9626886387014784,-0.1171145128992066,0.02092774736178461
4.397603609302721,-0.11285912096536777,0.021047259572760393
4.880251583654434,-0.10636941529082833,0.021046777027114747
5.415871378079476,-0.09764262348608099,0.02103660238662894
6.010276782070388,-0.08672509952521068,0.021194978774084095
6.669919663030129,-0.07371319268486332,0.021763616177020773
7.401959996915652,-0.058753119319135294,0.023014490895458962
8.214343584919439,-0.04203984105924974,0.02518028104028445
9.115888299750837,-0.023814973306798493,0.02839064274974086
10.11637979766207,-0.004363767523955175,0.032655955274109374
11.226677735108158,0.015988770898275106,0.03789932943586126
12.458833642950081,0.03688255098677473,0.043999067295028324
13.826221737646593,0.05792775776444614,0.05081587821879409
15.343684089300131,0.07871080183394952,0.058204494403013916
17.02769172225898,0.09880074175543996,0.06601637696449553
18.896523396912116,0.11775605668435674,0.07409919493479805
20.970464013232306,0.13513164200094252,0.08229605176177242
23.27202478960412,0.15048589864227324,0.09044534458501327
25.826187606826746,0.16338778752219696,0.09838183024639112
28.66067616948256,0.1734237234545617,0.10593885833363229
31.80625692794119,0.1802041885998733,0.11295188112147456
35.297073027306574,0.1833699532207902,0.11926350845021146
39.17101490809261,0.1825978010876952,0.12473058274387418
43.47013158125035,0.17760566841207037,0.12923369853436714
48.241087041653735,0.16815711790445675,0.13269029009138572
53.535666774107185,0.15406508342107372,0.1350727295521086
59.411339849650396,0.13519483540881083,0.1364332288637484
65.93188271333541,0.11146613241271552,0.13693774651579577
73.16807143427206,0.08285453922826491,0.13691011761565583
81.19844993184009,0.049391907235303734,0.13688354003328868
90.11018251665037,0.011166027421950275,0.13764583984052833
100.0,-0.031680520021836855,0.1402461014704703
