tau,gamma,gamma_lo,gamma_hi
1e-07,1.205357949474869e-05,-2.955413547888784e-05,7.228049609362899e-05
1.1097524964120721e-07,6.153714436501466e-05,-0.0001510805116998081,0.0003687662565665513
1.2315506032928263e-07,0.00021150856910646628,-0.0005209063939004497,0.0012654341556641593
1.3667163564620074e-07,0.0004985424703543575,-0.0012366376736913972,0.0029715126460630433
1.5167168884709241e-07,0.0008386845477751883,-0.002111246533570252,0.004958445924884502
1.6831803533309585e-07,0.0010836238098369236,-0.002795329982367495,0.006311255504682252
1.867913599020781e-07,0.0011880836777169832,-0.0031496795943956905,0.006773513517352625
2.0729217795953698e-07,0.0012054886984192684,-0.0032458205290362015,0.006725482742204232
2.300430119772917e-07,0.001184251343592913,-0.0031962194378147664,0.006520336006335997
2.5529080682395163e-07,0.0011364326253238796,-0.003105588820285677,0.006290004139243899
2.833096101839324e-07,0.001054827593370712,-0.003048678963014351,0.006040911618842571
3.1440354715915e-07,0.0009347595289342405,-0.0030817494784102797,0.0057610670814470235
3.489101213406774e-07,0.0007790394722842701,-0.0032204761344254494,0.005432951398798432
3.872038781812557e-07,0.0006125670337555794,-0.003414659110583827,0.005070565771669666
4.2970047043208437e-07,0.00046474857924067237,-0.003578230901102898,0.00469853205693512
4.768611697714474e-07,0.00034270493703198406,-0.003656808013538276,0.0043520788532179664
5.291978735958437e-07,0.00023815160327659267,-0.0036314990844372617,0.0040660395046720026
5.872786613189477e-07,0.00014099282500264137,-0.003554140451376452,0.003840997739014027
6.517339604882421e-07,4.60828796192378e-05,-0.003537360672967213,0.003653078310948504
7.232633896483533e-07,-4.6568699054791706e-05,-0.0036489837073650053,0.0034868101991423635
8.026433522257174e-07,-0.00013015858205514736,-0.0038761752095171622,0.003361172139540926
8.907354638610439e-07,-0.0001984226251461812,-0.004148360814634074,0.0033052278613800077
9.884959046625586e-07,-0.0002494027232942067,-0.004353779576600989,0.003351561877890346
1.096985797892384e-06,-0.00027953809376119306,-0.004397460337110863,0.0034932579042513965
1.217382727739662e-06,-0.0002817869739670039,-0.00430479130805099,0.0036430242784149286
1.3509935211980278e-06,-0.0002509794958168134,-0.004155284554555359,0.003690066863778835
1.499268432786047e-06,-0.00020094411327342668,-0.0040111125555467265,0.003639330177463074
1.6638168860761274e-06,-0.0001565798301236067,-0.0039048255524456606,0.003581502686636235
1.8464249428955464e-06,-0.00012199700162902301,-0.003837645279060877,0.003573763864902892
2.049074689815846e-06,-8.05075943359241e-05,-0.0038004860330552955,0.003613968067217864
2.2739657523579273e-06,-2.838037486032294e-05,-0.003815097292443863,0.003663384556174551
2.523539170434766e-06,1.1208195972538646e-05,-0.003948242264714681,0.0036752712890456064
2.800503894183631e-06,2.6031695511220823e-05,-0.004191651123205481,0.0036499139104841745
3.107866187782014e-06,4.4835396256038785e-05,-0.004375788925714064,0.0036942616761877043
3.4489622604057595e-06,0.00010242853625251944,-0.004320917198114752,0.00389218451408529
3.827494478516315e-06,0.0001937720424302987,-0.004074463954884941,0.004154747171507632
4.247571552536894e-06,0.0002899721583505469,-0.003801022582908934,0.004310981772134562
4.713753134116729e-06,0.0003776284493691609,-0.003574543173930297,0.004346934063279036
5.2310993080562585e-06,0.0004571871899373187,-0.003377788102031691,0.004378792167797099
5.805225516094895e-06,0.0005254734295467052,-0.003204622685115659,0.004453693325168422
6.44236350872137e-06,0.0005711632291923762,-0.0030979152558145238,0.004510238045781597
7.149428986597577e-06,0.0005947940203688554,-0.0030777999642466747,0.004506933434912213
7.934096665797492e-06,0.0006220256972781464,-0.0031088532244661032,0.0045072356633639515
8.804883581643465e-06,0.0006772695430071492,-0.003130113718025661,0.004582661630646053
9.771241535346501e-06,0.0007623271258697993,-0.003094737366811539,0.004747035529843947
1.0843659686896109e-05,0.000861142518506309,-0.002981531540286043,0.0049514642371217745
1.2033778407775906e-05,0.0009491809910916054,-0.0028422482656769795,0.005105091024124205
1.3354515629298974e-05,0.001004375477398812,-0.0027584285702188824,0.005117790397749337
1.48202070579886e-05,0.001041932260829623,-0.0027460967480286607,0.005041809596851056
1.6446761779946626e-05,0.0011061683546947886,-0.0027513309461034965,0.005047760909897537
1.8251834943190462e-05,0.0012162785055021262,-0.0027098048348749965,0.005213956631618862
2.0255019392306664e-05,0.0013504751261541796,-0.0025782678726974507,0.0054672322117177525
2.2478058335487252e-05,0.0014830318107874945,-0.0023606913901863735,0.005693048042651498
2.4945081352303165e-05,0.0016072875559421287,-0.002145025042476421,0.00581551674636911
2.7682866303920665e-05,0.0017246537040505152,-0.002020303141684606,0.005813108493901365
3.072112998861759e-05,0.001843796572484557,-0.0020081560017355207,0.005785483365048739
3.409285069746814e-05,0.0019714503916808484,-0.0020771465959075214,0.0058627698456150375
3.783462617131933e-05,0.002114691506599887,-0.002160632461632943,0.006100325007574224
4.1987070844439056e-05,0.0022770300686886804,-0.0021729591847648205,0.006473599057517418
4.659525668664687e-05,0.002462825146922023,-0.002068493794033223,0.006914446981515391
5.170920242896755e-05,0.0026738841849449214,-0.0018569741193917156,0.007330483598630614
5.7384416483024044e-05,0.00290657788558369,-0.0016050321551847135,0.007694995069986266
6.368249944718586e-05,0.0031510851101109304,-0.001438824097145726,0.008077615500692577
7.067181273927492e-05,0.0033972842127663818,-0.0014071631597828997,0.008516976895997957
7.842822061337681e-05,0.0036508644460506168,-0.001392042061070614,0.008971562817874678
8.703591361485166e-05,0.003928307174821723,-0.0012563989723948614,0.009397816146964976
9.658832241158708e-05,0.004274019785456598,-0.0010171305086777655,0.00989773867207524
0.00010718913192051276,0.004724045887923763,-0.0007655292900031165,0.010602237385678765
0.00011895340673703195,0.005264149009979882,-0.0005187690755790646,0.011500160338601144
0.0001320088400831418,0.00583776966794096,-0.00022703859450209877,0.012438337969730208
0.00014649713983072864,0.006438236150342062,0.0001405694847276605,0.01330903054415048
0.0001625755666443795,0.007112779210512733,0.0005694510264604853,0.01409372493906567
0.00018041864093920718,0.007897222186206232,0.0010511823640541953,0.014871525530558647
0.00020022003718155845,0.008789005170139728,0.0015985204453400088,0.01584129377319796
0.0002221946860939524,0.009771169175310053,0.0022371306544494637,0.01712003269391283
0.0002465811075822604,0.010853859064106453,0.00299148822513179,0.01864056193548801
0.0002736439997074672,0.012034136442926934,0.0038716172772707332,0.0202632828225053
0.00030367711180354605,0.01330786423208979,0.0048627335480132304,0.02201602549433817
0.00033700643292719284,0.01464395169380894,0.005921374164069859,0.02396618296875615
0.0003739937302478798,0.01605666469290547,0.007021572460487066,0.02610361405591841
0.0004150404757850477,0.01756978572947836,0.008124183334448542,0.028293943511818263
0.00046059220411451084,0.019212243609761342,0.00918419409514704,0.030478391590514305
0.0005111433483440171,0.021006421691007374,0.010156915872587866,0.03273262597598821
0.0005672426068491978,0.022985873442434773,0.0111050170880753,0.03523639801969027
0.0006294988990221888,0.025233848599582637,0.012257834698094138,0.03832303635523905
0.0006985879746785249,0.027794170029925642,0.013712170894900516,0.042201637669835125
0.0007752597488629464,0.030686859387688593,0.015217451020188509,0.04682834401112586
0.000860346441668451,0.03388180473448647,0.016529146464172063,0.05197328346511038
0.0009547716114208065,0.03746332835388156,0.018053478288843725,0.057597729871290734
0.001059560179277617,0.04152528406665479,0.020486937899032144,0.06376499265331613
0.0011758495540521582,0.04621251260243775,0.023906747547019585,0.07085543126518942
0.0013049019780144017,0.05162810883548193,0.02771719346080877,0.07928245312774891
0.001448118227674533,0.05786437613586697,0.031547865428176454,0.08893556795695719
0.0016070528182616384,0.0649672917776943,0.03546716269945109,0.09897571403888718
0.0017834308769319094,0.07297322906054653,0.03953700258511288,0.10884794654945983
0.0019791668678535573,0.0820229966802489,0.04367099615335468,0.11918623099470521
0.002196385372416547,0.09227780202210824,0.048060119000550024,0.13117394156783982
0.002437444150122222,0.10418796329703013,0.053902601498321295,0.14658978440803253
0.002704959730463137,0.11814001894899623,0.06253247903538965,0.16695023437470108
0.0030018358135755923,0.13454625950513813,0.07403206565471726,0.19276135778883807
0.003331294787934677,0.1535359525164606,0.08708887984957897,0.22331783613548237
0.0036969127071950323,0.17539579338792005,0.10000532006418801,0.2581143225411522
0.00410265810582719,0.20047023366474287,0.11150193712758291,0.2971574291987689
0.004552935074866948,0.22991212596031527,0.12409530569932185,0.3432624564880744
0.00505263106533568,0.26543531204126425,0.14505874793318504,0.40119127888206557
0.005607169938205458,0.30691974496918345,0.1790137414935221,0.46873524056204985
0.006222570836730231,0.35063853014411306,0.2220374691414667,0.530416149447218
0.006905513520162331,0.3914353857617588,0.2666348200813631,0.5714635291704993
0.007663410868007463,0.4272347233067071,0.3074502553797605,0.5987971477204526
0.008504489341802686,0.4562798950014973,0.33979218219992197,0.6268381857639337
0.009437878277775391,0.476802062598879,0.36066427998328704,0.65579068100819
0.010473708979594508,0.48555108814922726,0.36681957398676573,0.6718040732582152
0.011623224686798541,0.4800319311167619,0.35584186600965256,0.6655163510767348
0.01289890261253308,0.4595362082147197,0.3272982201985303,0.6372934711206534
0.014314589375234785,0.4246676219391751,0.2839758316731588,0.5914153068302965
0.015885651294280528,0.38026134680313606,0.23544856623021715,0.5371271617328257
0.01762914118095948,0.3311445746354758,0.19002044385820466,0.4809652546587417
0.01956398343517065,0.28278898958886606,0.15100608668750504,0.4257170222908999
0.021711179456945052,0.23949846437113262,0.11906962187961878,0.3717291026140068
0.02409403560239527,0.2030207204291471,0.09455370471567828,0.32044040311978694
0.026738416158399492,0.17359727071558523,0.07796401325395184,0.274390951017932
0.029673024081888724,0.1501180386757671,0.06791378381764458,0.23499315678168364
0.032929712550971546,0.13110912156447635,0.06152463263265789,0.2030820257434823
0.036543830709572546,0.11519370290446966,0.05632257300841721,0.17774379064359497
0.040554607358408275,0.10165576972504707,0.050912065318725115,0.15704650231668077
0.04500557675700498,0.08994998384408288,0.04499337679495871,0.13910276166584826
0.0499450511585514,0.07989807264671166,0.03960836269268017,0.1232662816679725
0.05542664520663107,0.07127471402661671,0.03562403777685307,0.10929551674674942
0.06150985788580504,0.06383562630147281,0.03263366612245253,0.09723930905935321
0.06826071834272393,0.0572540515078998,0.02963713293661291,0.0870093040757941
0.0757525025877192,0.05122731525868392,0.026159903965828766,0.07809262655531463
0.08406652885618333,0.04553684237602986,0.022263608931651257,0.0698369615480583
0.09329304026284696,0.0401215124688467,0.01828844989139523,0.06204829797125405
0.10353218432956637,0.0351596106836012,0.014744884887742025,0.055134413441698914
0.11489510001873086,0.03071586045328699,0.011729678315406876,0.04923802552832131
0.1275051240713013,0.02680258731766548,0.008924516159898742,0.044180830275788424
0.1414991297434576,0.02334985214660054,0.006213175843375008,0.03962426455092766
0.15702901247293774,0.020341251345449236,0.004123259458806925,0.035412077318218875
0.17426333860096507,0.017763561173555535,0.003137865732781336,0.03151937695944513
0.19338917504552322,0.015628348300608975,0.002896018066236646,0.02818949814795209
0.21461411978584058,0.013932670075795796,0.0026758235112307556,0.025681644137360276
0.23816855519761607,0.012580083038529536,0.0021978829101640543,0.023867011013679773
0.2643081486974108,0.011418821918377637,0.0015607655394807626,0.022348885651676177
0.29331662783900486,0.010320654696697308,0.0008015506835043115,0.020862903298866458
0.32550885998350565,0.009222363025813614,-0.00019692332097731984,0.01941480264542647
0.36123426997094304,0.008093238013267617,-0.0015458884442740638,0.018169261625321793
0.40088063288984643,0.006962310014369549,-0.0032370413528174315,0.017472859394372868
0.4448782831127585,0.005824330138563001,-0.005223096460361719,0.017556920723698754
0.4937047852839004,0.004611155723124764,-0.007481114139961795,0.01836523746747511
0.5478901179593945,0.003148589960839434,-0.010256864987471068,0.019668812815457043
0.6080224261649427,0.001118694339663177,-0.014405069910540944,0.021213104733767058
0.67475440531107,-0.001958356392875699,-0.02108465713343091,0.022772563985013716
0.748810385759003,-0.0067032179268965725,-0.031087026114410027,0.024309149486761373
0.8309941949353403,-0.014023262300102987,-0.04513087669661388,0.025299519412497046
0.9221978823334341,-0.025291271886537806,-0.06492173319889012,0.02331225324330347
1.0234114021054528,-0.041881827162805405,-0.09237437676008847,0.014149938554020932
1.135733358343105,-0.06352839361724366,-0.12626797825518402,-0.003929304459875383
1.2603829296797273,-0.08686453430024416,-0.159786669087622,-0.027365372719213642
1.3987131026472386,-0.10821181591780435,-0.18646134261852065,-0.05131431423311671
1.552225357427048,-0.12573816669691637,-0.20557180267658176,-0.07198038354415123
1.7225859653987874,-0.13825840729882827,-0.21866880734818575,-0.08654527849753636
1.9116440753857036,-0.14535208200327537,-0.2276100231948585,-0.0943421310364651
2.121451784910632,-0.14637078739176768,-0.2322605611799552,-0.09523616950212915
2.35428641432242,-0.14103293782909293,-0.22924210919991067,-0.08890135145901996
2.612675225563332,-0.12952787544899919,-0.21335817691126893,-0.07518630380881454
2.8994228538828812,-0.1129839140226075,-0.18495898924582532,-0.05627330893982431
3.2176417502507353,-0.09432164535145812,-0.15280750443898214,-0.037803325302094765
3.5707859649004625,-0.07598417941778238,-0.12441134774175804,-0.02367133308843445
3.9626886387014784,-0.05972533045438078,-0.10230931652659901,-0.01377228366071538
4.397603609302721,-0.04639998249487541,-0.08571468073124826,-0.00671128958296044
4.880251583654434,-0.03589549620672252,-0.07193653632299261,-0.0018315238106832645
5.415871378079476,-0.02776994273638194,-0.05846994116817674,0.0009171729985576983
6.010276782070388,-0.021621481220554278,-0.045500143873041,0.0019581681583439444
6.669919663030129,-0.01721849216493949,-0.03506484417095077,0.002014402203337076
7.401959996915652,-0.014183949373497111,-0.027912631106750737,0.0016627956255122727
8.214343584919439,-0.012024173190635682,-0.02331904352478446,0.0012918754158922946
9.115888299750837,-0.010345316470526738,-0.020328991595940624,0.0011134701948786938
10.11637979766207,-0.008946339489389674,-0.018320902764431553,0.0012204833592868256
11.226677735108158,-0.007717554735893336,-0.01698069693712955,0.001632262372267398
12.458833642950081,-0.006606293201331298,-0.016195611663683347,0.0022630996518996794
13.826221737646593,-0.005530519508376527,-0.01556768896228592,0.002892731184630459
15.343684089300131,-0.004347167637218624,-0.014009827299777297,0.003114704271390453
17.02769172225898,-0.0029670297113702786,-0.010529949807524558,0.0025745042149284496
18.896523396912116,-0.001590692157051378,-0.0059516109187616115,0.0015208645051058584
20.970464013232306,-0.0006174905273467106,-0.002367992407089439,0.0006167464981055841
23.27202478960412,-0.00016557250901357134,-0.0006417177515677907,0.00016846459031948826
25.826187606826746,-2.998494133455482e-05,-0.00011672705230047962,3.0742780960936515e-05
28.66067616948256,-3.631944730321221e-06,-1.4164125385315095e-05,3.7353685770040197e-06
31.80625692794119,-2.9304289618983534e-07,-1.1436672216299193e-06,3.0176949318314583e-07
35.297073027306574,-1.572375041676403e-08,-6.138376521318672e-08,1.620030295332689e-08
39.17101490809261,-5.606864156312407e-10,-2.189120288465846e-09,5.777996513457593e-10
43.47013158125035,-1.3283228330208984e-11,-5.1864998160635676e-11,1.3689809767543569e-11
48.241087041653735,-2.0905408359626306e-13,-8.16277714979855e-13,2.1546027930934968e-13
53.535666774107185,-2.185574083192277e-15,-8.533914351882501e-15,2.2525792574287644e-15
59.411339849650396,-1.517806306529956e-17,-5.926530208248753e-17,1.5643478299575962e-17
65.93188271333541,-7.001771187328898e-20,-2.733962988463935e-19,7.21648753481984e-20
73.16807143427206,-2.1455513799619597e-22,-8.377681884926604e-22,2.211348889093904e-22
81.19844993184009,-4.367257937715933e-25,-1.7052728674874244e-24,4.501190067403051e-25
90.11018251665037,-5.904966974030825e-28,-2.3056986740648748e-27,6.086057441394267e-28
100.0,-5.3035262598529924e-31,-2.0708555945551948e-30,5.466172386195351e-31
