tau,gamma,gamma_lo,gamma_hi
1e-07,5.017070782194191e-05,2.5329078301605527e-06,0.00018686304455238904
1.1097524964120721e-07,0.00025642254049910334,1.298566436416359e-05,0.0009535434268598065
1.2315506032928263e-07,0.0008837180120906933,4.5084561338686766e-05,0.0032736915587037955
1.3667163564620074e-07,0.0020960316203831792,0.0001087594820719755,0.007695864816097789
1.5167168884709241e-07,0.0035735897578045256,0.00019210724172828136,0.012871731543903928
1.6831803533309585e-07,0.004732135539920384,0.0002706864111980446,0.016449458848918123
1.867913599020781e-07,0.005377615050589453,0.00033472859505538773,0.0177400459109295
2.0729217795953698e-07,0.005691582891432045,0.00038619303375801196,0.01768019510905125
2.300430119772917e-07,0.005859061080779633,0.00042131424193951177,0.017217541730722936
2.5529080682395163e-07,0.005954495766478957,0.0004277715569388829,0.01683659708924926
2.833096101839324e-07,0.005997826199770878,0.00040889567087728026,0.01668096677707473
3.1440354715915e-07,0.006026170051122632,0.0004013858402193605,0.016732794292073704
3.489101213406774e-07,0.0060581300061972754,0.00043696753494962287,0.016849506531794442
3.872038781812557e-07,0.006086500041831237,0.0005053546443866072,0.01682293141238668
4.2970047043208437e-07,0.00607917748767704,0.0005767719890499377,0.016450524753714564
4.768611697714474e-07,0.006025133506417805,0.0006377785249545179,0.015801974799751584
5.291978735958437e-07,0.005925416793415181,0.0006826430080349577,0.015125330826996155
5.872786613189477e-07,0.005794113192990563,0.0006921905221338412,0.014617283395386219
6.517339604882421e-07,0.00565727196280864,0.0006360645274915566,0.014375598789747557
7.232633896483533e-07,0.005525517915412668,0.0005174320699680234,0.014313554411996384
8.026433522257174e-07,0.005402066902446259,0.0003933759425159466,0.014182494702163807
8.907354638610439e-07,0.005277459275104352,0.000312711176312975,0.013805016150118565
9.884959046625586e-07,0.005152863365137951,0.00027972367509717603,0.013300559105093954
1.096985797892384e-06,0.00502423159831142,0.00027752251953572265,0.012842310455497725
1.217382727739662e-06,0.004898629365718352,0.00028768642799587956,0.01249909953645432
1.3509935211980278e-06,0.004782840145531849,0.0002955500733402681,0.012248745430515632
1.499268432786047e-06,0.0046909554610370125,0.000295971162625947,0.012078611107669026
1.6638168860761274e-06,0.004634591993693379,0.0002924389647091506,0.011982074662966375
1.8464249428955464e-06,0.004601261829196105,0.0002973184750189998,0.011917372077994093
2.049074689815846e-06,0.004559116148924143,0.00032744881017709044,0.011814978638834687
2.2739657523579273e-06,0.004489422154064689,0.00038037062670385325,0.011640695317854333
2.523539170434766e-06,0.0044140415066041775,0.0004240909844643109,0.011467797295453178
2.800503894183631e-06,0.004349115443766465,0.0004310931940393718,0.011388533727921856
3.107866187782014e-06,0.004295008386425075,0.0004069510319767187,0.01149840957699326
3.4489622604057595e-06,0.004237127699744807,0.0003703065873282752,0.011773054133725295
3.827494478516315e-06,0.0041756615241490365,0.0003352123948529204,0.011966001086448057
4.247571552536894e-06,0.0041155883282186145,0.00030887057536771727,0.011773292301843938
4.713753134116729e-06,0.0040663216626780395,0.0002912969687428193,0.011294524418527591
5.2310993080562585e-06,0.004037735616342716,0.00027996848925623623,0.01094511727746376
5.805225516094895e-06,0.004032686956539012,0.0002783473651023753,0.010902911893114006
6.44236350872137e-06,0.004049852487133239,0.0002963193040856949,0.011003148838850785
7.149428986597577e-06,0.004077738820620445,0.0003338851432739373,0.011058500016216931
7.934096665797492e-06,0.004104432370235894,0.0003715088477466299,0.01105460221098325
8.804883581643465e-06,0.004117208214257286,0.00038680778161390475,0.011026045512501647
9.771241535346501e-06,0.0041268961477415,0.0003722625430965393,0.011016952566377473
1.0843659686896109e-05,0.004148790295040564,0.0003362452613645701,0.011059289755495662
1.2033778407775906e-05,0.004203465525410522,0.00031057922151284237,0.011224743820500056
1.3354515629298974e-05,0.004298153742789051,0.00032785207017961896,0.01155764652497756
1.48202070579886e-05,0.0044079615345400695,0.00036759141157196375,0.011959137675890642
1.6446761779946626e-05,0.004484655403676984,0.0003697346409188624,0.012213566036914893
1.8251834943190462e-05,0.004522265794851781,0.0003296808015887696,0.01225706949640476
2.0255019392306664e-05,0.004579396352618322,0.0003203667462809252,0.012267269814949666
2.2478058335487252e-05,0.00469403820257646,0.00037984542598378895,0.012388695182833528
2.4945081352303165e-05,0.004848263762279068,0.0004446433008153769,0.01262784288300471
2.7682866303920665e-05,0.004992824858074321,0.000441105413301331,0.01292407692722096
3.072112998861759e-05,0.00509653324616496,0.00038041598448057274,0.013280015641941137
3.409285069746814e-05,0.005142205055411912,0.00031827950525803813,0.013688998660908743
3.783462617131933e-05,0.00516162427689402,0.0002909125912878105,0.014089245109295163
4.1987070844439056e-05,0.005206786538506638,0.00030645435192886604,0.014358888725803551
4.659525668664687e-05,0.00529783552901465,0.0003425074259833197,0.014449874748508586
5.170920242896755e-05,0.005418637713783289,0.0003600699976045723,0.014413408181682833
5.7384416483024044e-05,0.005548547008777874,0.00035990963309975974,0.014356549211142476
6.368249944718586e-05,0.005686169168146967,0.0003955426381433611,0.014459940833028996
7.067181273927492e-05,0.005837611822930358,0.0004844277506001966,0.014816950628080812
7.842822061337681e-05,0.006032368744866063,0.0005468388670028681,0.015383130648246972
8.703591361485166e-05,0.006289741069434281,0.0005016422714786802,0.016073363745027863
9.658832241158708e-05,0.006616686462942156,0.00038767628852901995,0.01694080089970941
0.00010718913192051276,0.007011788393012273,0.0003128652883078889,0.01809086337539201
0.00011895340673703195,0.007515422965459509,0.00035315466882201735,0.01961079099550757
0.0001320088400831418,0.008196921841553653,0.0005411832873504416,0.021554985176668814
0.00014649713983072864,0.009127924849740473,0.0008574145199274644,0.024055384778601457
0.0001625755666443795,0.010366163448695898,0.0012244157651278792,0.027338912140200424
0.00018041864093920718,0.011953743444916733,0.001549128866225682,0.03170558585973485
0.00020022003718155845,0.01392653396566972,0.0017357409298880983,0.037539989498839355
0.0002221946860939524,0.016410413556706027,0.0017456573811705748,0.045368893954369396
0.0002465811075822604,0.01975512296046962,0.0016766500493148955,0.055984682747349995
0.0002736439997074672,0.0245509372272637,0.001688854884226004,0.07059670576991983
0.00030367711180354605,0.031792074849638835,0.0019364947918515264,0.09124406939422847
0.00033700643292719284,0.04322817587276426,0.0025609697340995834,0.12126481545445109
0.0003739937302478798,0.06195955543084746,0.003771490789744458,0.16597198871497207
0.0004150404757850477,0.09251484587113015,0.006611159604844596,0.23125719522486732
0.00046059220411451084,0.13972288263901897,0.014762535093846755,0.31924850745597955
0.0005111433483440171,0.20714244221158198,0.035122186544776605,0.42649076158480553
0.0005672426068491978,0.29483270546368456,0.0741986766710096,0.5523961516935253
0.0006294988990221888,0.3951410008843028,0.1343219796819437,0.6996530768243688
0.0006985879746785249,0.49624809422819693,0.2116030683581052,0.8623157363612923
0.0007752597488629464,0.5843614375722913,0.2908066701345455,1.0136432617803228
0.000860346441668451,0.645139959187569,0.35297997693879657,1.1175592842254238
0.0009547716114208065,0.6744323639606441,0.3900565315214213,1.1593921324892171
0.001059560179277617,0.6736293580833571,0.3997789124451834,1.1402024916818985
0.0011758495540521582,0.6493880909328644,0.38183788323067286,1.0786336144829716
0.0013049019780144017,0.6121589855303056,0.3381432911504196,1.0050662371287225
0.001448118227674533,0.5692737563435312,0.27877420091784205,0.933407530313698
0.0016070528182616384,0.5261104212164612,0.22576722018324585,0.859300237539741
0.0017834308769319094,0.48535122172215717,0.19228816194382659,0.7786714120262406
0.0019791668678535573,0.44990252654614843,0.17200761868936557,0.7045603591748791
0.002196385372416547,0.4214757987029947,0.1548487821521597,0.6507745540384782
0.002437444150122222,0.4009489256430051,0.1418045991629853,0.6181107788694048
0.002704959730463137,0.3880465259867584,0.1384652062056522,0.5996999190790681
0.0030018358135755923,0.3815543874396364,0.14242116401561536,0.5910287674535515
0.003331294787934677,0.37980945432193214,0.14529562344176045,0.5905914571786307
0.0036969127071950323,0.3824677443866859,0.14433096048651134,0.5981900664292406
0.00410265810582719,0.3906398450715823,0.14405440269861894,0.6138276118986168
0.004552935074866948,0.40478525653368974,0.14916948363695312,0.6360739050045321
0.00505263106533568,0.424458943605122,0.16197075523099436,0.662832721745138
0.005607169938205458,0.44884966579242735,0.1830955988298878,0.6943091878550943
0.006222570836730231,0.4782285673434524,0.2117831179950981,0.7376073767577204
0.006905513520162331,0.5116480419507153,0.2456363846237554,0.79928106527265
0.007663410868007463,0.5465288499946586,0.2802053538971188,0.8789314184169282
0.008504489341802686,0.5778610064657634,0.30938014475260917,0.966246198672567
0.009437878277775391,0.6018040900206227,0.3296841626618846,1.0422794307129706
0.010473708979594508,0.6140518622256164,0.33878868943154544,1.0815443267209652
0.011623224686798541,0.610475880713993,0.33488200215112984,1.0746727468499553
0.01289890261253308,0.5874487899718487,0.31589023833344254,1.0310694012860264
0.014314589375234785,0.5424640544196809,0.27792831561003756,0.9576231198110032
0.015885651294280528,0.47855279269937645,0.2184576448324587,0.8566388033195057
0.01762914118095948,0.4008879254727146,0.1423456546086307,0.7312985652452686
0.01956398343517065,0.3202759829667095,0.07163123355785772,0.6002542927985235
0.021711179456945052,0.2474731713806421,0.028860880990160376,0.4839972545962068
0.02409403560239527,0.18717520679537591,0.012946735015565496,0.3889758253589419
0.026738416158399492,0.14041037807643122,0.008991715797096065,0.3127422989269383
0.029673024081888724,0.10556764563988935,0.007422003006890847,0.2508172806817047
0.032929712550971546,0.08038949746465861,0.0062441051920101515,0.20045278154107155
0.036543830709572546,0.0625493555601854,0.005633645810387568,0.15995827509672372
0.040554607358408275,0.05006838556901565,0.0054619454190797155,0.12908786291369378
0.04500557675700498,0.04134523365661629,0.005430451506781446,0.10691816039869519
0.0499450511585514,0.035122349616457195,0.005358110395975874,0.09109352410001209
0.05542664520663107,0.030486117368279907,0.005146486469480321,0.07914168099734736
0.06150985788580504,0.026926787023245868,0.004757430827666522,0.06963194879585913
0.06826071834272393,0.024157728258702584,0.004185319501394754,0.06186318704213979
0.0757525025877192,0.02197884143290544,0.0035101844265472467,0.05551750580076353
0.08406652885618333,0.020238599559226765,0.002875763894616219,0.05049259749736416
0.09329304026284696,0.018832325324915775,0.0024054376689016336,0.046694654919799794
0.10353218432956637,0.01771540476384152,0.0021885445964322557,0.04402737207107116
0.11489510001873086,0.01683083602484529,0.0021916586376467206,0.042126270890257965
0.1275051240713013,0.016129123875357913,0.002239897027523392,0.04040671355014705
0.1414991297434576,0.015540522462198956,0.0021852147941106397,0.03847382292840006
0.15702901247293774,0.015027223764370814,0.002015228619710115,0.036571506654869274
0.17426333860096507,0.014547251042323494,0.001783948395745667,0.03502281069978472
0.19338917504552322,0.014108521075726545,0.0015739013849899656,0.03388866521202615
0.21461411978584058,0.013719303813557425,0.0014580775809863518,0.03297761305438976
0.23816855519761607,0.01338754709271954,0.0014447615297320123,0.03206305828137741
0.2643081486974108,0.013107708041530206,0.0014933194675469119,0.030974851653421873
0.29331662783900486,0.01286352844995621,0.0015582619599762912,0.02984394390596854
0.32550885998350565,0.012641195715714771,0.0016019817068850353,0.029106314593953186
0.36123426997094304,0.012419119939092256,0.0016138646171943655,0.028942675110220775
0.40088063288984643,0.012201799429389495,0.0016169683795012484,0.029130953847883632
0.4448782831127585,0.011982588727835962,0.001623927240636863,0.0293213467914353
0.4937047852839004,0.011781268624167502,0.0016163711794647724,0.02933967428543099
0.5478901179593945,0.011595542372332457,0.0015719138073617175,0.029101172340924387
0.6080224261649427,0.011419934275175077,0.00151101287166747,0.02872558155112699
0.67475440531107,0.011234603403136393,0.0014736399172719256,0.028343732049223625
0.748810385759003,0.011051808842945331,0.0014750958782371012,0.027948759887133714
0.8309941949353403,0.010900940697862653,0.0015007352165381876,0.02741365450008282
0.9221978823334341,0.010781825338692212,0.001516691888310638,0.026699650657641932
1.0234114021054528,0.010673302866222478,0.0014828374295721022,0.025960542596524493
1.135733358343105,0.01056073175944271,0.001399071701609715,0.02537558696554362
1.2603829296797273,0.010482255031611995,0.0013301139113478491,0.02515003279389838
1.3987131026472386,0.010441315864884218,0.0013142828454244557,0.0252614960569564
1.552225357427048,0.010389273688406987,0.0012954182856217077,0.025347424231613708
1.7225859653987874,0.010252871107606882,0.0011949827006083537,0.02497188972849249
1.9116440753857036,0.010049462464130101,0.0010246524374492695,0.024181031434282595
2.121451784910632,0.00983927704043599,0.0008614467633929246,0.02330092797338713
2.35428641432242,0.009663258844495854,0.0007742906135071709,0.022579650352386176
2.612675225563332,0.009533621926502353,0.0008071566092812951,0.02213266703543049
2.8994228538828812,0.009438628206287592,0.0009469812030333309,0.021936742069618948
3.2176417502507353,0.009365148249242903,0.00111680959262187,0.021902269977900204
3.5707859649004625,0.009293800290168401,0.0012434906402555076,0.021973281244926385
3.9626886387014784,0.009232860405143357,0.0012937547421882165,0.02223709213669674
4.397603609302721,0.00918487622464965,0.0012710389125682375,0.022692519474200815
4.880251583654434,0.009169860378802325,0.0012310329411767459,0.023140070376518558
5.415871378079476,0.009187175153564773,0.001227387724824383,0.02331714989811718
6.010276782070388,0.009215005948509616,0.001240981121646737,0.023299588490602825
6.669919663030129,0.009208166020920056,0.001206312641127779,0.023340479501942953
7.401959996915652,0.00914952958679437,0.0011026900752936718,0.02351893194994264
8.214343584919439,0.009050039423687331,0.0009649011832973566,0.023709543510759757
9.115888299750837,0.008903504970496572,0.0008271335671451126,0.02381551678821587
10.11637979766207,0.008695344556096614,0.0007079073616825859,0.02393641279334726
11.226677735108158,0.008403371987705839,0.0006085928704304492,0.024288632635565497
12.458833642950081,0.008027118498561237,0.0005173137266743774,0.025122522388396757
13.826221737646593,0.007454471072950478,0.00041987690381649746,0.025894700562697708
15.343684089300131,0.006397434912923323,0.0003128275443810097,0.024516499192247684
17.02769172225898,0.004636371931309679,0.00020273134368137128,0.018979539348778267
18.896523396912116,0.002568239482755465,0.00010510235564812946,0.010883162521511997
20.970464013232306,0.00101229650954268,4.011160401180654e-05,0.0043577202633930355
23.27202478960412,0.0002732259826980515,1.067400597186228e-05,0.0011840787746544349
25.826187606826746,4.961623630256779e-05,1.9268589009731563e-06,0.00021561729320724603
28.66067616948256,6.016520706238652e-06,2.330840948383703e-07,2.617552937984225e-05
31.80625692794119,4.856627286721314e-07,1.8796238673768028e-08,2.1138976321790116e-06
35.297073027306574,2.606392118786056e-08,1.00832621665335e-09,1.1346701581919711e-07
39.17101490809261,9.294714670477974e-10,3.595228718806823e-11,4.046677766428726e-09
43.47013158125035,2.2020784658288903e-11,8.517155337049908e-13,9.587570739761745e-11
48.241087041653735,3.4657171834047894e-13,1.340427368420757e-14,1.5089479740087046e-12
53.535666774107185,3.623282084177082e-15,1.4013532134458992e-16,1.577558455697562e-14
59.411339849650396,2.5162502887095764e-17,9.731894733988261e-19,1.0955646968934193e-16
65.93188271333541,1.1607688665453123e-19,4.4894025227144736e-21,5.053942514699318e-19
73.16807143427206,3.5569429424673504e-22,1.375686204370714e-23,1.5486796403689324e-21
81.19844993184009,7.240138599517495e-25,2.8002012002434064e-26,3.1523296621864006e-24
90.11018251665037,9.789387809509742e-28,3.7861502090306866e-29,4.262263603821347e-27
100.0,8.792305981365973e-31,3.4005180092380015e-32,3.828137911117475e-30
