tau,gamma,gamma_lo,gamma_hi
1e-07,2.320922622874599e-05,1.595187108035858e-06,8.209820595568682e-05
1.1097524964120721e-07,0.00011857244180992151,8.17929770409814e-06,0.0004184846430307853
1.2315506032928263e-07,0.0004082216542438199,2.84030580574903e-05,0.0014329724305494698
1.3667163564620074e-07,0.0009658676649008124,6.849855470087019e-05,0.003348018601171256
1.5167168884709241e-07,0.0016375505367349427,0.00012048035518877349,0.005524968597533042
1.6831803533309585e-07,0.002142897919707972,0.00016603248563407748,0.006882450501527188
1.867913599020781e-07,0.002380924080555133,0.00019057287070138295,0.007139462526164974
2.0729217795953698e-07,0.0024270546389688168,0.00018562712525762462,0.006791208685617944
2.300430119772917e-07,0.0023721752407593884,0.00015570238220007716,0.0062894535950092974
2.5529080682395163e-07,0.002275025514679582,0.00012127673784675765,0.005812446744239765
2.833096101839324e-07,0.0021628530243669834,0.00010321783044650698,0.0053894257661927444
3.1440354715915e-07,0.002052578302345203,0.00011451254984770479,0.005025939459747131
3.489101213406774e-07,0.0019481082867883147,0.0001527024737811937,0.004708478354611468
3.872038781812557e-07,0.001845673513049029,0.00018851511391581203,0.004411871566179401
4.2970047043208437e-07,0.0017378919101038127,0.0001891687674084748,0.0041144339266953826
4.768611697714474e-07,0.0016288462603019566,0.00015845879312981643,0.0038451729069720756
5.291978735958437e-07,0.0015292411829894615,0.00012436953169274838,0.00365963969853265
5.872786613189477e-07,0.0014416231528615623,0.00010023688600753727,0.0035626288899311717
6.517339604882421e-07,0.0013626468937089375,8.084160224605895e-05,0.0035094887567680725
7.232633896483533e-07,0.0012926017093434499,6.13699974816415e-05,0.003469083016263128
8.026433522257174e-07,0.0012429799795025344,4.630918191689676e-05,0.003450778198542325
8.907354638610439e-07,0.0012187208059140267,4.329637326235848e-05,0.003452355428067743
9.884959046625586e-07,0.0012104972905540227,5.7740917237025244e-05,0.0034382181368464737
1.096985797892384e-06,0.0012018620680421578,8.75085746400122e-05,0.0033631866932714175
1.217382727739662e-06,0.0011836003143573977,0.00011507092958220583,0.0032292259584313144
1.3509935211980278e-06,0.0011545504209112434,0.00012013430451337548,0.003072478810655931
1.499268432786047e-06,0.0011312180178687508,0.00010565103867661388,0.0029620766307206256
1.6638168860761274e-06,0.0011385468603385617,9.148089525726467e-05,0.0029779384895843464
1.8464249428955464e-06,0.0011804958915740487,8.737783807890494e-05,0.003133074400833827
2.049074689815846e-06,0.0012368810076480254,8.876455394222639e-05,0.0033603023501687255
2.2739657523579273e-06,0.0012892154594814048,9.080937776960111e-05,0.0035694181701771046
2.523539170434766e-06,0.0013338813469760244,9.440414656111935e-05,0.00367953910978942
2.800503894183631e-06,0.0013744154030395116,9.928717700634101e-05,0.0036743770470445015
3.107866187782014e-06,0.0014230940673167379,9.889598591785405e-05,0.003673877471332461
3.4489622604057595e-06,0.0014907744133196678,8.748519627539216e-05,0.0038074477386671342
3.827494478516315e-06,0.0015841024208327256,7.153057295118892e-05,0.004079442295676847
4.247571552536894e-06,0.0017061441253441699,6.443695080255301e-05,0.004413367965281684
4.713753134116729e-06,0.0018657264113169712,7.359788295508209e-05,0.004773667261721471
5.2310993080562585e-06,0.002073076784108189,9.873377656786227e-05,0.00516905329157202
5.805225516094895e-06,0.00233093117145364,0.0001328163545463429,0.005623772592233096
6.44236350872137e-06,0.0026299697820541925,0.0001648191522359382,0.006155203640467575
7.149428986597577e-06,0.0029638748332179617,0.00019693399851112593,0.0067475726194647055
7.934096665797492e-06,0.0033370376100289516,0.0002545420766240131,0.007347087013487288
8.804883581643465e-06,0.0037544537292603293,0.00036850386336018316,0.007909353110095184
9.771241535346501e-06,0.0042231637229253475,0.0005548123836224306,0.008478651514895167
1.0843659686896109e-05,0.004739582055570972,0.0008016339749721017,0.009123242945393
1.2033778407775906e-05,0.005299427981572286,0.0010469548918344833,0.009903771228896708
1.3354515629298974e-05,0.005889989411983422,0.001218319991032786,0.010832830081496336
1.48202070579886e-05,0.006523286953929006,0.00135167453601672,0.011866539134187072
1.6446761779946626e-05,0.007220330104861734,0.001583248040936079,0.012908752631758362
1.8251834943190462e-05,0.007992594605541794,0.002017168626975829,0.013945634028332701
2.0255019392306664e-05,0.008829570416694904,0.0026659281403765556,0.015072934710332669
2.2478058335487252e-05,0.009711372667541443,0.0034519546250216864,0.016347424983226718
2.4945081352303165e-05,0.010631656965636489,0.004190202809575253,0.017735032030146404
2.7682866303920665e-05,0.011581295045124371,0.004728846128324768,0.019167677951695376
3.072112998861759e-05,0.012590919370811656,0.005123041152883383,0.020693922736855986
3.409285069746814e-05,0.013692210920048584,0.005531100591228774,0.02239486189515596
3.783462617131933e-05,0.014953526171420388,0.006104447640558307,0.02439191129622234
4.1987070844439056e-05,0.016439137731917703,0.0069181037608099525,0.026761138421642613
4.659525668664687e-05,0.018210153150479247,0.00787247342238426,0.0295135843235666
5.170920242896755e-05,0.020304193507273766,0.008740144002178749,0.032612958599180154
5.7384416483024044e-05,0.022773340254465573,0.009545237631224023,0.036244386060579725
6.368249944718586e-05,0.025676716987558416,0.010683468041374065,0.0408338039900857
7.067181273927492e-05,0.029010901697448594,0.012436402821350494,0.04641554232257082
7.842822061337681e-05,0.03269016291685974,0.014630888261364937,0.05223759775459302
8.703591361485166e-05,0.03657837725905062,0.01691064418832358,0.057531992552105254
9.658832241158708e-05,0.040694751866583084,0.019098323737150598,0.06271028319332012
0.00010718913192051276,0.045063282109185726,0.021233443533997223,0.06854625833821293
0.00011895340673703195,0.04978355240170987,0.023787858028962945,0.07516161849213272
0.0001320088400831418,0.05486902667756454,0.027339488002467587,0.08201774295872288
0.00014649713983072864,0.06027356321478866,0.031702835822682,0.08910208470175776
0.0001625755666443795,0.0658257146978172,0.035549445256584974,0.09699992499132752
0.00018041864093920718,0.07141975277127127,0.03702570803978807,0.10600108196378023
0.00020022003718155845,0.07725940547348427,0.0344238587990671,0.1159825575155683
0.0002221946860939524,0.08396105495041147,0.02834323267429303,0.12765063861998324
0.0002465811075822604,0.09302161469095462,0.02416686858818285,0.14394263015522074
0.0002736439997074672,0.10598578520605798,0.02763020029497539,0.16761781227798742
0.00030367711180354605,0.12366591750890987,0.038858314433605975,0.1983437963107938
0.00033700643292719284,0.1462118180438939,0.055017374348483514,0.2335494959867819
0.0003739937302478798,0.17388543448636937,0.0758337274009952,0.27199262984740297
0.0004150404757850477,0.20664862838225825,0.10325117055194002,0.3132860096992266
0.00046059220411451084,0.24437917655989227,0.13769385068817963,0.3579314009644297
0.0005111433483440171,0.2860389560472582,0.17619175199682538,0.4061658754809577
0.0005672426068491978,0.32985533300158726,0.2155432675220419,0.4568034902684687
0.0006294988990221888,0.3730804140044888,0.25345243106767396,0.5068352458654822
0.0006985879746785249,0.4125165286197653,0.28844925044949943,0.5531301373892363
0.0007752597488629464,0.4465995935361849,0.3207714243426848,0.5961408915399414
0.000860346441668451,0.47264296465988964,0.34863993223250395,0.6344168765588541
0.0009547716114208065,0.48751694504845255,0.3662008980093955,0.6618821809930739
0.001059560179277617,0.4869614076674793,0.3647212502153698,0.6684913826822481
0.0011758495540521582,0.47048907586154104,0.3421705612352739,0.6513725319917488
0.0013049019780144017,0.4414376194868118,0.3039501360736519,0.6151674658924855
0.001448118227674533,0.40319036752148124,0.25726331444106165,0.5653673547182033
0.0016070528182616384,0.36016549496312633,0.21120255543123415,0.5089036422925173
0.0017834308769319094,0.3154071967284351,0.17118234198443683,0.4501025183477434
0.0019791668678535573,0.2722504385375085,0.13775864330938184,0.39267032676681274
0.002196385372416547,0.23295192285795613,0.10990033195090271,0.33901204721602834
0.002437444150122222,0.1987351769735692,0.08799451874222737,0.29167593556392657
0.002704959730463137,0.17004883524011924,0.07311201554256996,0.2524363502980925
0.0030018358135755923,0.1463457412174504,0.06423465555879307,0.22001289665486878
0.003331294787934677,0.12682538016383452,0.05882989463354437,0.1917868629270957
0.0036969127071950323,0.1107146668762095,0.054679341046988406,0.16691931809730431
0.00410265810582719,0.09768033609355362,0.050351189661581974,0.14713300793760714
0.004552935074866948,0.08711151908167382,0.045279094331661204,0.13278053294152112
0.00505263106533568,0.07822393471757608,0.03991897842561728,0.12184703309522711
0.005607169938205458,0.07033480252019209,0.0348708847058948,0.11192646471108839
0.006222570836730231,0.06343040641269168,0.03064937008510089,0.10207577077146453
0.006905513520162331,0.05760861568976515,0.027495975999963132,0.09211814295526755
0.007663410868007463,0.052736056842618506,0.02523264142275544,0.08253370796242418
0.008504489341802686,0.0484932650584754,0.023461774708301818,0.0739717943298338
0.009437878277775391,0.04462714574989664,0.021863171472041823,0.06673488625205633
0.010473708979594508,0.04101823025133145,0.02024925406079984,0.06087592688509326
0.011623224686798541,0.03761101430755915,0.01858459543507299,0.05612091017112831
0.01289890261253308,0.03448082744962006,0.01699591856025413,0.05205370223126929
0.014314589375234785,0.031606003471573225,0.01551615120813803,0.048213918900353585
0.015885651294280528,0.028935181973429203,0.014067356549349904,0.044360568063278365
0.01762914118095948,0.026376858278209094,0.012573861265416805,0.040412520656754616
0.01956398343517065,0.02396049995419969,0.011133397206463573,0.03670574053390876
0.021711179456945052,0.021698486619282052,0.009789144707029015,0.03354373119873176
0.02409403560239527,0.019528507430159197,0.00829284240542809,0.03080325316404386
0.026738416158399492,0.01736112200123237,0.006364036784793185,0.028123199587138912
0.029673024081888724,0.01522337947246814,0.004309890716074258,0.0253973052565086
0.032929712550971546,0.01327867113979866,0.002928818991284441,0.02281620828492058
0.036543830709572546,0.01159852997652197,0.002480315314603921,0.020465596872771087
0.040554607358408275,0.010165996697352415,0.0024619197554463868,0.01831167975162222
0.04500557675700498,0.008923189243865119,0.0023738370275730863,0.01631006260321911
0.0499450511585514,0.007850266035782106,0.0021113430874838556,0.014568752075357272
0.05542664520663107,0.006930083266985095,0.0017535625635216737,0.013153920307294443
0.06150985788580504,0.0061472627399935436,0.0013992235239458604,0.011977788606836202
0.06826071834272393,0.005481446468318455,0.001110338821193013,0.010910802514695282
0.0757525025877192,0.004912437558782831,0.0008752700210236046,0.009985736253281904
0.08406652885618333,0.004423648977487653,0.0006513105721854572,0.009320202599270829
0.09329304026284696,0.003996699330842728,0.0004407903471880676,0.008858777999916257
0.10353218432956637,0.003621322562499254,0.0002958800441264669,0.00838862182166294
0.11489510001873086,0.0032918604124327526,0.000235236380884063,0.007806848942437761
0.1275051240713013,0.0030182032911611626,0.00021828549478525368,0.00723352940124905
0.1414991297434576,0.0027982749843459337,0.00020368130020802464,0.0067852803131997355
0.15702901247293774,0.0026153074523472953,0.00018409373460055904,0.006473170066598009
0.17426333860096507,0.0024508153642793374,0.0001704821217623961,0.006239848825268054
0.19338917504552322,0.002310652960431249,0.00017624839287624453,0.006025985804366357
0.21461411978584058,0.0022054395266352753,0.00020592084163553788,0.005782763550416256
0.23816855519761607,0.0021246820824827907,0.00023882264291626864,0.005516586103533549
0.2643081486974108,0.0020434360947429674,0.00024113987303567245,0.005268507883187033
0.29331662783900486,0.001955450258124638,0.0002094505041275441,0.0050628077015461214
0.32550885998350565,0.0018794931109365315,0.00017429995883206886,0.004909231073977788
0.36123426997094304,0.001828099084205164,0.00015829137337206563,0.004816444310395737
0.40088063288984643,0.0017998148028756946,0.00016004294301795948,0.0048056372168515495
0.4448782831127585,0.001781224611933189,0.000167846232162976,0.004852325609573513
0.4937047852839004,0.0017558983544735483,0.00016902522071022568,0.004858292590173323
0.5478901179593945,0.001709784414295319,0.0001567569996658173,0.004720305276639189
0.6080224261649427,0.0016504002827572128,0.00013931698461004522,0.0044567782225710196
0.67475440531107,0.0015932522812169417,0.00013009113908540813,0.004153608669116602
0.748810385759003,0.0015457554804215658,0.00012928521788134448,0.003887793759164825
0.8309941949353403,0.0015069879318828972,0.00012614792626653972,0.0037143643402441032
0.9221978823334341,0.0014748512535999894,0.00011522356621343769,0.003642085850122094
1.0234114021054528,0.0014505934171493181,0.00010069270581789739,0.0036399348180210962
1.135733358343105,0.0014333024004954049,8.869173191939611e-05,0.0036619532662508633
1.2603829296797273,0.0014215359813285185,8.393026638818728e-05,0.0036662164665775877
1.3987131026472386,0.0014100460325968294,8.697899519981239e-05,0.003626057415716027
1.552225357427048,0.0013949425242033495,9.210336049261468e-05,0.0035628153009146205
1.7225859653987874,0.0013736291225625054,9.403613645167376e-05,0.003508160763224789
1.9116440753857036,0.0013551412312420121,9.715326884071354e-05,0.00348312965978719
2.121451784910632,0.001352473209647177,0.00010957248161678154,0.0034940730778378654
2.35428641432242,0.0013704233391624097,0.00012903218775402975,0.00354228093996958
2.612675225563332,0.001404850643811159,0.00014396071878193298,0.003624498430986979
2.8994228538828812,0.0014496143931433394,0.00015004252950144356,0.003730766740052197
3.2176417502507353,0.001499471255980691,0.00015409958305221725,0.0038484098400529496
3.5707859649004625,0.001548426358212608,0.00016079771094755537,0.003972989792570512
3.9626886387014784,0.001593636054823569,0.00016571805563867558,0.004122441173269094
4.397603609302721,0.0016352047688761796,0.0001621272965390275,0.00429249176479631
4.880251583654434,0.0016863159675716563,0.00014940710691382166,0.0044367133897566515
5.415871378079476,0.0017592026147790097,0.0001330763796720406,0.004503952058524187
6.010276782070388,0.001853628094753051,0.000125943770383909,0.004537743091658242
6.669919663030129,0.001956323175881703,0.00014099316499279963,0.00463069196916799
7.401959996915652,0.0020556968658141817,0.00017166117707658366,0.004811383112508236
8.214343584919439,0.0021411812005021212,0.00019294211966089804,0.005034969852322291
9.115888299750837,0.0022030761678488177,0.00019024512771429107,0.005264606507893978
10.11637979766207,0.0022351375243853406,0.00016975410694579197,0.005505873215700781
11.226677735108158,0.0022323699740549765,0.00014366485374145793,0.005767487223803211
12.458833642950081,0.002195609192641186,0.00012301963582700081,0.006026819142074669
13.826221737646593,0.002090896711498028,0.0001116018246443091,0.006113630013524982
15.343684089300131,0.0018295178209880411,9.999731483603577e-05,0.00563891306842771
17.02769172225898,0.0013422205747617758,7.60634413697122e-05,0.004279340590795852
18.896523396912116,0.0007482260106588786,4.3390420113101835e-05,0.002427554233464705
20.970464013232306,0.00029577150316692014,1.734539912381302e-05,0.0009672213499493012
23.27202478960412,7.992880395288886e-05,4.710360553010362e-06,0.0002622593707958456
25.826187606826746,1.4521963674577428e-05,8.575548778832826e-07,4.771502125151509e-05
28.66067616948256,1.7613142367482648e-06,1.0409655586827199e-07,5.790449797791026e-06
31.80625692794119,1.4218792606668656e-07,8.40639640274039e-09,4.6756063605969345e-07
35.297073027306574,7.631018344334455e-09,4.512212199066767e-10,2.5095632837031057e-08
39.17101490809261,2.7213524966220207e-10,1.6092224013149403e-11,8.949872067336835e-10
43.47013158125035,6.447390181302983e-12,3.812633350752421e-13,2.12042350521375e-11
48.241087041653735,1.0147177685331525e-13,6.000539914104619e-15,3.3372335775245406e-13
53.535666774107185,1.060851731935658e-15,6.273376635610532e-17,3.4889690344130754e-15
59.411339849650396,7.367269242737737e-18,4.356661976233464e-19,2.4229776410929284e-17
65.93188271333541,3.3985880057430954e-20,2.0097688349049006e-21,1.1177419815849649e-19
73.16807143427206,1.0414290651128932e-22,6.158534630692548e-24,3.4250964751674405e-22
81.19844993184009,2.1198234214433485e-25,1.2535666313691134e-26,6.9717664497450165e-25
90.11018251665037,2.866212225255726e-28,1.6949469055827702e-29,9.426522308615532e-28
100.0,2.5742789522438604e-31,1.5223109359504503e-32,8.466399670208532e-31
