tau,gamma,gamma_lo,gamma_hi
1e-07,0.0005974255082064462,5.285026160278528e-05,0.0019566513042429895
1.1097524964120721e-07,0.0030533207584307856,0.0002712353752128318,0.009977962884355106
1.2315506032928263e-07,0.010521898896973254,0.000944004996933051,0.03420201269362098
1.3667163564620074e-07,0.024953322972031802,0.002289418966816608,0.08011584866471229
1.5167168884709241e-07,0.042550254236190285,0.004083391458999182,0.13305076118047343
1.6831803533309585e-07,0.05645923266352463,0.005822681956615743,0.16831722444346417
1.867913599020781e-07,0.06470950234001406,0.0072252417512700465,0.18084632132439754
2.0729217795953698e-07,0.06994584012565051,0.008202869555232634,0.18417732768853315
2.300430119772917e-07,0.07444712473296244,0.00869321779084661,0.1890535901780376
2.5529080682395163e-07,0.07856449513590293,0.008646166918144871,0.19694669841802806
2.833096101839324e-07,0.08200871475033851,0.00825901176804048,0.20544693461076424
3.1440354715915e-07,0.08496312049871844,0.00816936421003571,0.21224984011384065
3.489101213406774e-07,0.08749617276156131,0.008765017463977402,0.2158574272474675
3.872038781812557e-07,0.08945010216228853,0.009533081679100072,0.2173024437681775
4.2970047043208437e-07,0.0905050150900198,0.009783011287079112,0.21831233166605904
4.768611697714474e-07,0.09107120985600564,0.009841721187353651,0.22036915933349818
5.291978735958437e-07,0.09174434054976285,0.010475817958733032,0.22364321993714317
5.872786613189477e-07,0.0922688794680948,0.011189981986864139,0.22590096807174373
6.517339604882421e-07,0.09165542774978795,0.010396708537746227,0.2233259241436628
7.232633896483533e-07,0.08977086370930232,0.00806109349988098,0.21550047457096547
8.026433522257174e-07,0.08813018707022498,0.006615605676996275,0.20773900492578504
8.907354638610439e-07,0.08786637594054092,0.007814038769523333,0.20438241665351428
9.884959046625586e-07,0.08879125941478473,0.010608407742101592,0.20546068792604502
1.096985797892384e-06,0.09001810173306271,0.013161168768419523,0.20860316332971207
1.217382727739662e-06,0.09105079012933137,0.014914119117771765,0.21178557989349767
1.3509935211980278e-06,0.09156885169621864,0.016100025954516987,0.21328108296764034
1.499268432786047e-06,0.0916083726867308,0.01690066592498183,0.2127448535359646
1.6638168860761274e-06,0.09138328761426852,0.01730516015500936,0.210728071534098
1.8464249428955464e-06,0.09127193900418522,0.017462152273627858,0.2084296082473422
2.049074689815846e-06,0.09176779321217682,0.017677736992133895,0.20754106229502076
2.2739657523579273e-06,0.09275330188397762,0.01780465408702305,0.20825440358382333
2.523539170434766e-06,0.09346542900321536,0.017088516847090392,0.20907279052203992
2.800503894183631e-06,0.09323052966553184,0.015113666042650787,0.2083836271973784
3.107866187782014e-06,0.09253860497350738,0.012734839738012612,0.2067533785909165
3.4489622604057595e-06,0.09206721474036447,0.011077633021216645,0.20533872691421456
3.827494478516315e-06,0.09212858831992489,0.01040053909373663,0.20542635101362997
4.247571552536894e-06,0.09254012362566942,0.010465008758284274,0.2078720235056626
4.713753134116729e-06,0.09300743701738566,0.011272866540276153,0.21305710868082353
5.2310993080562585e-06,0.09320923654347703,0.012948200100439447,0.22044315613975995
5.805225516094895e-06,0.0931244533491531,0.014894926345901272,0.22794801608931708
6.44236350872137e-06,0.09317687362046012,0.01568829325116957,0.23220312787760136
7.149428986597577e-06,0.09360666591816022,0.014728271606272934,0.23171214183471728
7.934096665797492e-06,0.0944652223578233,0.01317767285582975,0.2292852527994839
8.804883581643465e-06,0.09548071917666481,0.012329892592935907,0.22749742586278726
9.771241535346501e-06,0.09641832962686203,0.012355612369225935,0.22644040981805552
1.0843659686896109e-05,0.0969432246450752,0.012776236881931963,0.22493937266236427
1.2033778407775906e-05,0.09711575757755134,0.0131432645371248,0.22380503177487637
1.3354515629298974e-05,0.0970997578879505,0.01319577603490213,0.22452156167624165
1.48202070579886e-05,0.09708660105234151,0.01308094142134966,0.22648312949508595
1.6446761779946626e-05,0.09726509538185399,0.013232712535206697,0.22724921304771883
1.8251834943190462e-05,0.09779665929502909,0.013827585980730615,0.22634241315609038
2.0255019392306664e-05,0.09897481431927783,0.014704049689659972,0.22675900983497713
2.2478058335487252e-05,0.10085264329405953,0.015900759252154756,0.2309085948302211
2.4945081352303165e-05,0.10333290543163158,0.01793545760989389,0.2388581936036944
2.7682866303920665e-05,0.10598993248736985,0.020977645797127055,0.24841912539310762
3.072112998861759e-05,0.10843918330762564,0.023989519211810095,0.2561792380694127
3.409285069746814e-05,0.11027177633500894,0.02561973274734702,0.25890777923679353
3.783462617131933e-05,0.11180092527531492,0.026012751761425777,0.25809047599921925
4.1987070844439056e-05,0.1135817655501527,0.026326035291356843,0.2577748486986464
4.659525668664687e-05,0.11569409046042019,0.02720499732507754,0.2595380582170542
5.170920242896755e-05,0.11767849436911561,0.028484771892353357,0.2621248500910684
5.7384416483024044e-05,0.1191557198476316,0.02965275505271045,0.2646588347052743
6.368249944718586e-05,0.12030818031659668,0.030125185942184246,0.26828342047708353
7.067181273927492e-05,0.1212569482653324,0.029628074486528596,0.2730645074862836
7.842822061337681e-05,0.12222735621336629,0.028644210814658625,0.2769339215175661
8.703591361485166e-05,0.12320161506550283,0.02774154932995064,0.2773057763077007
9.658832241158708e-05,0.12433622479377718,0.027069224597544246,0.27505156372466744
0.00010718913192051276,0.1256027482029775,0.02634751932760726,0.27248781876203304
0.00011895340673703195,0.12694035032225368,0.025074308401002842,0.2714747956967681
0.0001320088400831418,0.12820893989879154,0.022881679265073396,0.2728629582562944
0.00014649713983072864,0.12959298605676275,0.02049363111308238,0.2764851328013283
0.0001625755666443795,0.13165700175585177,0.019804620863337064,0.28177746766761697
0.00018041864093920718,0.13448399398568855,0.021889403395307837,0.28906702038161264
0.00020022003718155845,0.13757581121659684,0.02602997073830022,0.30041341283529555
0.0002221946860939524,0.14004431327522793,0.030699441266092208,0.315704950797317
0.0002465811075822604,0.14144925812108652,0.03419274863846194,0.3303719177205735
0.0002736439997074672,0.14158747014314982,0.03549993887795119,0.33796377243887316
0.00030367711180354605,0.141376207500112,0.035865087002495,0.3362413316562941
0.00033700643292719284,0.14190923221365015,0.03729788358702818,0.3257866620244919
0.0003739937302478798,0.1433453318829001,0.039746156388971984,0.3102678498736915
0.0004150404757850477,0.1449835619624127,0.04136242548572652,0.2955281785395473
0.00046059220411451084,0.14653596247708278,0.041468098343856986,0.28564160365576274
0.0005111433483440171,0.1485712990097819,0.041339875114742325,0.282629221078907
0.0005672426068491978,0.15135452080617984,0.04220838394935893,0.28559717396096995
0.0006294988990221888,0.15470572530473284,0.044389886491568074,0.29100979731187676
0.0006985879746785249,0.15815340917038043,0.047830232716307756,0.2955047817442233
0.0007752597488629464,0.16188554521150061,0.052670249560430746,0.2995652637570726
0.000860346441668451,0.16599581632884852,0.05890393471684747,0.304296826592029
0.0009547716114208065,0.17046144624354634,0.06592750354352947,0.3090389314046059
0.001059560179277617,0.17486238782419578,0.07248297163465843,0.31191366915116747
0.0011758495540521582,0.1790184536518552,0.07749636769819362,0.31410080952406016
0.0013049019780144017,0.18293690355278835,0.0801615926840171,0.3193441867671907
0.001448118227674533,0.1866869931000607,0.0806660522180131,0.3283472130391389
0.0016070528182616384,0.19059951801618166,0.08051362058201139,0.3374238938195756
0.0017834308769319094,0.19471490935867858,0.08095499542756014,0.34256910648342237
0.0019791668678535573,0.1991968124481533,0.08255641300955512,0.34342011774936226
0.002196385372416547,0.20387379698867827,0.08562192578550812,0.34160081966604766
0.002437444150122222,0.20894627684520378,0.09087368824842218,0.341752408990673
0.002704959730463137,0.21434480462379776,0.09848208847055917,0.34763785348969994
0.0030018358135755923,0.22011614060175147,0.10657174499841593,0.35769104192900797
0.003331294787934677,0.2260150031435396,0.11132329533730907,0.36640171712038544
0.0036969127071950323,0.23183530840947308,0.10966182313835311,0.371518319235215
0.00410265810582719,0.23763097989737286,0.10095154478855746,0.37534931174266184
0.004552935074866948,0.24428159459713988,0.09068373963178566,0.38171586221482057
0.00505263106533568,0.25395404258377763,0.09190619725635993,0.39503420059520344
0.005607169938205458,0.26715108526101333,0.11213007681480262,0.4154559526636635
0.006222570836730231,0.2813136841013182,0.14319115357290024,0.4364654840323243
0.006905513520162331,0.29258214563538865,0.1719372053670821,0.4501507027017339
0.007663410868007463,0.29964362145861895,0.19195367629641427,0.45615874530262857
0.008504489341802686,0.3024426453740948,0.20193488133814436,0.4574195148924614
0.009437878277775391,0.3024591225155449,0.20492971360211099,0.45597702815200863
0.010473708979594508,0.30144329315904844,0.20540212325775764,0.4518950173233105
0.011623224686798541,0.2993709358818403,0.20424173696928521,0.44467470211819543
0.01289890261253308,0.29463356194451334,0.19862627451777468,0.43433792324120163
0.014314589375234785,0.28604341825660257,0.18690109255424794,0.42049980243051305
0.015885651294280528,0.2749871595921737,0.17208070767715752,0.40378489456766115
0.01762914118095948,0.26273947109290036,0.158069017843221,0.3844252595938245
0.01956398343517065,0.250226625735981,0.14795284022975938,0.36396292793446067
0.021711179456945052,0.23736612624332068,0.1424040583212181,0.3434700987796312
0.02409403560239527,0.22389314059709214,0.13786575907870122,0.3236212561705028
0.026738416158399492,0.2094035978149135,0.12915623405438664,0.3044419958773458
0.029673024081888724,0.1941318636164722,0.11579960930781234,0.28573998566165315
0.032929712550971546,0.17899638620490768,0.10156570011545495,0.2674187148863013
0.036543830709572546,0.16423796841349936,0.08837771317301804,0.24898331271609497
0.040554607358408275,0.1497601110317843,0.0753381624538019,0.2303238377033494
0.04500557675700498,0.13531902899430723,0.0617567202092498,0.21144149020679814
0.0499450511585514,0.12153093907822057,0.04944174165249518,0.19365546541125386
0.05542664520663107,0.10892027376642027,0.040251802926923104,0.1780410099386892
0.06150985788580504,0.09780170788181435,0.033974636966799136,0.16511002029322028
0.06826071834272393,0.08820441420040544,0.02947576464336622,0.15436804327697565
0.0757525025877192,0.08001955928789506,0.026202628856284136,0.14418249216393925
0.08406652885618333,0.07310068986024615,0.024095126027272387,0.13270519984015866
0.09329304026284696,0.06720278088214392,0.022680911111629034,0.12037915847107876
0.10353218432956637,0.062110547540701125,0.02106317766892932,0.10991614062064278
0.11489510001873086,0.05754595831171889,0.01888816844404502,0.10245477665741723
0.1275051240713013,0.053352708466938445,0.0167139596216966,0.09676948569627451
0.1414991297434576,0.04939150906979126,0.015032202114169323,0.09135499168956544
0.15702901247293774,0.045755711368940626,0.013757409358385908,0.08610280299891851
0.17426333860096507,0.04247148106443514,0.01249586704565838,0.08120674035124242
0.19338917504552322,0.03945546580102028,0.010891312142252517,0.07652335240234134
0.21461411978584058,0.036536238602503296,0.008785022510559152,0.07168614448341383
0.23816855519761607,0.033669766628348224,0.006536578681821478,0.0668814584998268
0.2643081486974108,0.030921864924447238,0.00482076780427386,0.06265744492648673
0.29331662783900486,0.028307236168384854,0.0038341880563236164,0.059039233298882374
0.32550885998350565,0.02583331137862691,0.003247733494957102,0.05555893077119202
0.36123426997094304,0.02346256980764182,0.0027337802727547874,0.05184918054670081
0.40088063288984643,0.021236689579168296,0.002202451682386617,0.04811719895837107
0.4448782831127585,0.019218373230699165,0.0017238422874176651,0.04459380400892905
0.4937047852839004,0.017567238577011205,0.0014729561642688276,0.04142906452346792
0.5478901179593945,0.016335710785688826,0.0015356227973965973,0.03855739696013977
0.6080224261649427,0.015280243933071702,0.0016684718423305453,0.03578080732962906
0.67475440531107,0.014048674640415069,0.0015140954007195019,0.03291944156859551
0.748810385759003,0.01262163868593697,0.0010625356395780273,0.030201403576419407
0.8309941949353403,0.011282702054931235,0.0006030666341568968,0.028146452379731943
0.9221978823334341,0.010234617435880312,0.0003281390948329442,0.026825792665677067
1.0234114021054528,0.009532893495144275,0.0002463477260993682,0.025789888576935777
1.135733358343105,0.009095950387171538,0.000296289362062576,0.024588215132756046
1.2603829296797273,0.008744284353450826,0.00039753534286372886,0.023136758273925175
1.3987131026472386,0.008312585442931442,0.00048048745489853836,0.021595138447801063
1.552225357427048,0.007779882593168995,0.0004992720906672449,0.020425142898301503
1.7225859653987874,0.007187803411341964,0.00043677602262273896,0.019926260552890294
1.9116440753857036,0.006604308278277761,0.0003347780213330117,0.019692675259453583
2.121451784910632,0.006097233545263706,0.0002627110217834218,0.018995840646280897
2.35428641432242,0.005702600286431919,0.0002482218694537916,0.017807465793386098
2.612675225563332,0.005433583515470523,0.00027464735144682703,0.01675764686713394
2.8994228538828812,0.005270034252691274,0.00030925348744634783,0.016188910483180073
3.2176417502507353,0.005171260492939737,0.00031523568119133617,0.015936118175613845
3.5707859649004625,0.005102904155066694,0.0002780630198949976,0.015755697000697552
3.9626886387014784,0.005068498694027683,0.00022219084700089806,0.015621994245848954
4.397603609302721,0.005078159712999102,0.00017771255041595173,0.015578795566898437
4.880251583654434,0.0051452122012770754,0.00015451126820478062,0.015674854041804225
5.415871378079476,0.005261706661679561,0.00014958527147428913,0.015916354517690908
6.010276782070388,0.005394362136809221,0.00015673658432162704,0.01630930071589183
6.669919663030129,0.005509824595682127,0.00017202224297570097,0.016863079530835382
7.401959996915652,0.005672641959201068,0.00020086456112858837,0.017659252709860993
8.214343584919439,0.006042698336757251,0.0002595545538972403,0.01882727811611571
9.115888299750837,0.006737195576015459,0.00036951940245021525,0.020406284531502762
10.11637979766207,0.0077798283020304995,0.0005469316996595737,0.02227911054358638
11.226677735108158,0.009136539939027254,0.000772374866161089,0.024210851863087416
12.458833642950081,0.010651041761445924,0.0009606052063132807,0.02580200806490108
13.826221737646593,0.011817172424151414,0.0010162736195056914,0.02617176537076482
15.343684089300131,0.01160057222983321,0.0009088971940686083,0.02389565090009352
17.02769172225898,0.009123050272107256,0.0006623270249139554,0.017963903403734938
18.896523396912116,0.005265492835502306,0.00036612127508614864,0.010134810829161801
20.970464013232306,0.0021139599725104896,0.00014403436015458874,0.004027633042927397
23.27202478960412,0.0005750240723562155,3.883756969442526e-05,0.0010908635470424234
25.826187606826746,0.00010475592997574085,7.049595295778745e-06,0.0001983778367449314
28.66067616948256,1.2719418725304843e-05,8.546853284677032e-07,2.40695483135076e-05
31.80625692794119,1.0272752306306175e-06,6.898631689302768e-08,1.9433905614509674e-06
35.297073027306574,5.514232513896599e-08,3.7021554214198897e-09,1.0430538274735557e-07
39.17101490809261,1.9666141309746236e-09,1.3202177402796403e-10,3.719802627218732e-09
43.47013158125035,4.659412643629255e-11,3.127808155895985e-12,8.812993556414881e-11
48.241087041653735,7.333270292917386e-13,4.92265673886783e-14,1.387032208675047e-12
53.535666774107185,7.666713331591235e-15,5.146455501978501e-16,1.450095789934791e-14
59.411339849650396,5.3242927885647066e-17,3.57404295923612e-18,1.0070449027360739e-16
65.93188271333541,2.4561464226368984e-19,1.6487379070290775e-20,4.645590578922217e-19
73.16807143427206,7.526370043639113e-22,5.0522257366573665e-23,1.4235481258568726e-21
81.19844993184009,1.5319888899857095e-24,1.0283778613254593e-25,2.8976249024486635e-24
90.11018251665037,2.0714015480945825e-27,1.3904691838039627e-28,3.9178773030666246e-27
100.0,1.8604224326686506e-30,1.2488452511288757e-31,3.518828460608848e-30
