tau,gamma,gamma_lo,gamma_hi
1e-07,3.1126973483163654e-05,2.2012622514136993e-06,0.00011925772133051186
1.1097524964120721e-07,0.00015929426934379814,1.1435879785730041e-05,0.0006083044052012418
1.2315506032928263e-07,0.0005506728110151149,4.094216106588026e-05,0.0020863431807341217
1.3667163564620074e-07,0.0013153740687605927,0.00010544964717806973,0.004893762274930384
1.5167168884709241e-07,0.0022761286644436642,0.00020952966472330273,0.008150613824669148
1.6831803533309585e-07,0.0030936305915898197,0.00034577041955143663,0.010362224722654391
1.867913599020781e-07,0.003641359403362168,0.0004923655223084355,0.011192775548328177
2.0729217795953698e-07,0.0039944135195711305,0.000614192163624015,0.011389898488190898
2.300430119772917e-07,0.004231237305603197,0.0006915972179984254,0.011497046174767576
2.5529080682395163e-07,0.004369169902113658,0.000724782182199217,0.011489962171101245
2.833096101839324e-07,0.0044062603718288225,0.0007146482739129661,0.011246432819718157
3.1440354715915e-07,0.004376291825650817,0.000660366794243766,0.010901392841201884
3.489101213406774e-07,0.00431425237443003,0.0005722478339756737,0.010622572714872438
3.872038781812557e-07,0.004254071651839794,0.0004956743089788099,0.010441770420789065
4.2970047043208437e-07,0.004211206223031748,0.00047823045767203456,0.010272395385234176
4.768611697714474e-07,0.0041816379592211714,0.0005127631967430916,0.010013918771661532
5.291978735958437e-07,0.004148452975543624,0.0005543174788767435,0.009596048706553596
5.872786613189477e-07,0.004112963192464582,0.0005768484029332546,0.009101181403727187
6.517339604882421e-07,0.004097098876502919,0.0005819697517899482,0.008759803989564758
7.232633896483533e-07,0.004110041554519813,0.0005824250670266322,0.008704483934374172
8.026433522257174e-07,0.0041452656041125364,0.0005954025672462415,0.008897542218016969
8.907354638610439e-07,0.004188299517668208,0.0006292950861323873,0.009199771263276086
9.884959046625586e-07,0.004238163165721152,0.0006765052528751407,0.009430526553598481
1.096985797892384e-06,0.004289288449451332,0.0007213951081670932,0.009453304318434549
1.217382727739662e-06,0.0043379403572753475,0.0007510933725055562,0.009344069103798695
1.3509935211980278e-06,0.004375482596571219,0.0007581556235724032,0.009263909152421953
1.499268432786047e-06,0.004409832666964895,0.0007534504348230376,0.009307214530003752
1.6638168860761274e-06,0.004457044539124575,0.0007578767973889728,0.009476325977993293
1.8464249428955464e-06,0.004528841823205892,0.0007783096486191196,0.009700012189954792
2.049074689815846e-06,0.004632153675874077,0.000807829230580739,0.009865772115524961
2.2739657523579273e-06,0.004767627683540911,0.0008505755505411348,0.009937510324473015
2.523539170434766e-06,0.004938375663606053,0.0009270680024315586,0.010024862076709164
2.800503894183631e-06,0.005138192703532879,0.0010242107579400412,0.010209014159403628
3.107866187782014e-06,0.005363610948989742,0.0010621479787814136,0.010467889796427834
3.4489622604057595e-06,0.005613650385311233,0.0009899182584399554,0.010757013746620227
3.827494478516315e-06,0.005923700771170561,0.0009257256866407391,0.011173376333242354
4.247571552536894e-06,0.006331850196425787,0.00105582103876376,0.01184678223339563
4.713753134116729e-06,0.006843966645097496,0.0014011651886552193,0.012749687777147892
5.2310993080562585e-06,0.007428180160877928,0.0018376899713295049,0.01371084672649263
5.805225516094895e-06,0.008068536399784833,0.002304460694403449,0.014672662860920609
6.44236350872137e-06,0.008769094654391027,0.0028424855378501243,0.015727765572852187
7.149428986597577e-06,0.009525300427836173,0.003487046586004684,0.016905631186109743
7.934096665797492e-06,0.010319060214816657,0.0042002862513659785,0.018091551350313435
8.804883581643465e-06,0.011117720985245664,0.004919712590377116,0.019158023744400208
9.771241535346501e-06,0.01192006385618992,0.005610320052946257,0.02017188789587648
1.0843659686896109e-05,0.012713113505940413,0.006243800966192176,0.021214175839053873
1.2033778407775906e-05,0.013502522041169049,0.006818313296901984,0.022278326586963607
1.3354515629298974e-05,0.014271904016659004,0.0073189115076081395,0.02327151813459848
1.48202070579886e-05,0.015011351844542165,0.0077189117022761775,0.02423311587046361
1.6446761779946626e-05,0.015696438523064547,0.00798848170360786,0.02527417008946948
1.8251834943190462e-05,0.01629916310151871,0.008182470155768066,0.02631775473183739
2.0255019392306664e-05,0.016809524689009304,0.008458259505004026,0.027072157727820553
2.2478058335487252e-05,0.017233944580102512,0.00885965172985672,0.027399703569914526
2.4945081352303165e-05,0.017659808985299376,0.009217216734361534,0.027653513028884445
2.7682866303920665e-05,0.0181261857872462,0.009348930732547164,0.028167992624513513
3.072112998861759e-05,0.01860222823025043,0.009322533942374613,0.028932766080470063
3.409285069746814e-05,0.019000342505266485,0.009295529570477594,0.029730685139718365
3.783462617131933e-05,0.019338364652702184,0.0093260330523221,0.03055582318442706
4.1987070844439056e-05,0.019679456158060712,0.009367244192994966,0.03148378685144728
4.659525668664687e-05,0.02005451797989549,0.009372515688033942,0.03240043119528272
5.170920242896755e-05,0.020457111160534797,0.009342675828798148,0.03301352994048327
5.7384416483024044e-05,0.0209073188076996,0.009361081328963974,0.033319758630540194
6.368249944718586e-05,0.02151572807929802,0.009620836984308668,0.03383937789036065
7.067181273927492e-05,0.0223493779178229,0.010236116907472672,0.03495706820649201
7.842822061337681e-05,0.023415480354116763,0.011131102992161131,0.03661062990125927
8.703591361485166e-05,0.02464761480270722,0.012152857274273982,0.038535697895142114
9.658832241158708e-05,0.026009777062423037,0.013220232263311886,0.04070345285439729
0.00010718913192051276,0.027449953036779506,0.014243034869267422,0.043142883535834765
0.00011895340673703195,0.029005893327905416,0.01509125856466388,0.04586391598754547
0.0001320088400831418,0.03075092439449758,0.015634696719275164,0.048846258169571624
0.00014649713983072864,0.0328007306648901,0.01605374482830166,0.05238381019514119
0.0001625755666443795,0.0352750814083328,0.016841561740130812,0.05697804223874888
0.00018041864093920718,0.0381836451369452,0.018238688262208654,0.06251657287114387
0.00020022003718155845,0.04141402230460787,0.02003814111949121,0.06796500241817069
0.0002221946860939524,0.044857046731499504,0.022101682050248532,0.07250844261995042
0.0002465811075822604,0.04864267532371583,0.024772279588307577,0.07676766981717725
0.0002736439997074672,0.052865032265461354,0.028295080440342252,0.08173709351397787
0.00030367711180354605,0.05752120169456837,0.03213504963938978,0.08796241796564813
0.00033700643292719284,0.06239042471726235,0.03535703785880731,0.09523893849514524
0.0003739937302478798,0.06731128420859447,0.03790615345655475,0.1027966404399701
0.0004150404757850477,0.07207725871109286,0.040379884166687044,0.10947837750187786
0.00046059220411451084,0.07660217697994938,0.04292020498613943,0.11519035032151763
0.0005111433483440171,0.08090729557348987,0.044943804096724105,0.12106794244231397
0.0005672426068491978,0.08491238254421879,0.045986394021248475,0.12759427575523594
0.0006294988990221888,0.08854985518579582,0.046384907722755706,0.13392148099929427
0.0006985879746785249,0.0916552863636834,0.04688158801204835,0.1388035366377129
0.0007752597488629464,0.09441247926902518,0.04859008432148698,0.14222569765183954
0.000860346441668451,0.09695937019957804,0.05218135243139833,0.14465953096945103
0.0009547716114208065,0.09955013300481093,0.056801548418831685,0.1471938844942356
0.001059560179277617,0.10230110501184095,0.06054190914403775,0.1509418059472994
0.0011758495540521582,0.10526913285433732,0.06227404707107831,0.15655383187496497
0.0013049019780144017,0.10844814854771485,0.061518538373958584,0.16413422962142843
0.001448118227674533,0.11197718623627517,0.05751611502941691,0.1735232542775808
0.0016070528182616384,0.11642051462956608,0.049609276633930964,0.1846606018755727
0.0017834308769319094,0.12254699281745457,0.0395212657334668,0.1981573822024604
0.0019791668678535573,0.13160446678216076,0.033367257792886774,0.2161402999629466
0.002196385372416547,0.144668952621257,0.03580721532997479,0.24059591584017156
0.002437444150122222,0.1624559180293323,0.04371171577193096,0.27248022599706123
0.002704959730463137,0.18568281367614,0.051415574711733594,0.3123521592062423
0.0030018358135755923,0.21629637543162733,0.05960631140759595,0.3627022974713529
0.003331294787934677,0.25664190034731243,0.07489083301928265,0.426520647450491
0.0036969127071950323,0.30799763122454377,0.10481336584084029,0.5051617632797122
0.00410265810582719,0.3687511259090883,0.15477577394335632,0.5956996367578569
0.004552935074866948,0.4341590216701136,0.22187161616995732,0.691396729640564
0.00505263106533568,0.49489907588284365,0.2905337711489271,0.780456999736542
0.005607169938205458,0.5416611331392767,0.34440123934861916,0.8524851095511449
0.006222570836730231,0.569553688577333,0.3738758047842582,0.9045839899759083
0.006905513520162331,0.5732651789529841,0.3721981468754499,0.9295900625709598
0.007663410868007463,0.5486555199964391,0.33808752232850037,0.9121552743148482
0.008504489341802686,0.4923481948531777,0.2745215501271286,0.8352227835826623
0.009437878277775391,0.4101649646370882,0.19459901473156127,0.7083538056967874
0.010473708979594508,0.3165001733811602,0.11953563508045217,0.563474477715886
0.011623224686798541,0.22468932164974098,0.06222201730217452,0.42455782332669334
0.01289890261253308,0.14767520921153796,0.026198690259435557,0.3057985808305174
0.014314589375234785,0.09167500860888465,0.008836162753316683,0.2120891100545838
0.015885651294280528,0.05511594153835841,0.002707368129973341,0.14285684011168404
0.01762914118095948,0.03358986731089094,0.0011153531308073549,0.09512506791621567
0.01956398343517065,0.02175253974192267,0.000805583531977292,0.06379539243610001
0.021711179456945052,0.015187197373413208,0.0007152953969583256,0.04395419177020043
0.02409403560239527,0.01131350236495376,0.0006153522733545796,0.0315846291127872
0.026738416158399492,0.00888334860634532,0.0005162342638818671,0.02381237103572833
0.029673024081888724,0.00728204450434859,0.00044900109556568555,0.01884574098469292
0.032929712550971546,0.006181536512511432,0.00042111880458904757,0.0156661292133253
0.036543830709572546,0.0053834837884866385,0.0004101849119744977,0.013598056013906039
0.040554607358408275,0.00476734722913233,0.000372976699760873,0.012118429508537084
0.04500557675700498,0.004262526646542952,0.00029715333932590167,0.010904901250904805
0.0499450511585514,0.00385255681148356,0.00023064521600998838,0.009898617629528126
0.05542664520663107,0.0035278234800568613,0.00021754976286286602,0.009104494399186702
0.06150985788580504,0.0032644922472242362,0.00024003954162228706,0.008475789028719934
0.06826071834272393,0.0030313192695170027,0.0002550978251738434,0.00792401865730745
0.0757525025877192,0.0028167643981632374,0.00024972562927239256,0.007390792802898604
0.08406652885618333,0.002625212151188675,0.0002362636403309808,0.006857444851991831
0.09329304026284696,0.0024647478998267693,0.0002280332622744856,0.006364120528803128
0.10353218432956637,0.0023449573236253947,0.00023120611284449622,0.006002614738029808
0.11489510001873086,0.0022604759897112683,0.00023889513589150414,0.005804819409222303
0.1275051240713013,0.002193044971767187,0.00023280579739161302,0.005722166962086635
0.1414991297434576,0.002125706402585728,0.0002074081822950795,0.005678126417603255
0.15702901247293774,0.002060982892623561,0.0001862930270163304,0.005618142521961749
0.17426333860096507,0.002004440825659822,0.00019086438829003048,0.005512614157815902
0.19338917504552322,0.001960701849439529,0.00020796812889079438,0.005397828476783577
0.21461411978584058,0.0019279415408774351,0.0002102040106661877,0.0053160288260497585
0.23816855519761607,0.0019004919690441286,0.00019369468049794034,0.005253230631899557
0.2643081486974108,0.0018692821907869324,0.0001732596584143739,0.0051530132319366736
0.29331662783900486,0.0018295838011676048,0.00015655665953986415,0.005000838168699365
0.32550885998350565,0.0017843853807236903,0.00014099524800893296,0.004841901114858941
0.36123426997094304,0.0017401191242661228,0.0001281229883837084,0.004715947117069946
0.40088063288984643,0.0017095946855731343,0.000129295997372503,0.004642693876321908
0.4448782831127585,0.0016939770032682474,0.00014803292193393746,0.004599272177239834
0.4937047852839004,0.0016780334672799808,0.00016589866811861394,0.004525779660546908
0.5478901179593945,0.0016448095167862034,0.00016133503078040213,0.004372713875362487
0.6080224261649427,0.0016046310881585957,0.00013465601170515698,0.00419227982279651
0.67475440531107,0.0015783544564220151,0.00010110337889490215,0.00407416117400708
0.748810385759003,0.0015714551739173747,7.743812428328214e-05,0.004036242320652698
0.8309941949353403,0.001574122248858416,7.6701492090553e-05,0.004033438807559859
0.9221978823334341,0.0015783117519120168,9.520461044476753e-05,0.004040923714921482
1.0234114021054528,0.0015829073121968339,0.00011255377860820187,0.004071730401491994
1.135733358343105,0.0015844334130115346,0.00011592114465697308,0.004113084533229467
1.2603829296797273,0.0015777691078910792,0.00011121657416814722,0.004110495045601228
1.3987131026472386,0.0015589199710217487,0.00010850159585121076,0.004031963550552644
1.552225357427048,0.0015378214037348006,0.00011128857225768106,0.0039509554540419775
1.7225859653987874,0.0015253271283970373,0.00011644828854727607,0.003952851173053827
1.9116440753857036,0.0015258201804907367,0.0001152897079379371,0.004029799443460316
2.121451784910632,0.0015364379133809677,0.0001001213841838871,0.004105574139187736
2.35428641432242,0.0015540025519307373,7.935671184050977e-05,0.004132389450419025
2.612675225563332,0.0015754123896645517,7.446433711090111e-05,0.004107641016080427
2.8994228538828812,0.0015977227191504692,9.457585700958111e-05,0.004073916353003472
3.2176417502507353,0.0016198087805966612,0.0001292945694995606,0.004113653709988365
3.5707859649004625,0.0016404011720026718,0.00016464529050755401,0.004251307226077686
3.9626886387014784,0.001662901141693352,0.00019042251244337372,0.004411634306467849
4.397603609302721,0.0016878775528748455,0.00020068905676334488,0.004509030645219921
4.880251583654434,0.0017155604449076278,0.00019637037576912704,0.004554209939738671
5.415871378079476,0.0017419559335987134,0.00018113699654844577,0.004596551828492906
6.010276782070388,0.0017650577647029158,0.0001601091705090512,0.004671042909290442
6.669919663030129,0.001782496540347275,0.0001392796198908638,0.004787168046330625
7.401959996915652,0.0017961193970325539,0.00012404323661449252,0.004945132148238047
8.214343584919439,0.001810346659064148,0.00011876118555143076,0.005136937164884023
9.115888299750837,0.001823137344776003,0.00012171407555765221,0.0053418893459629534
10.11637979766207,0.001826756363679125,0.0001238843904681014,0.005530171515545628
11.226677735108158,0.001811995995739096,0.00011808430707071542,0.005673587867740719
12.458833642950081,0.0017746322741257422,0.00010518717608221877,0.005754155161570103
13.826221737646593,0.001684370334472609,8.827800894643655e-05,0.005649592101815902
15.343684089300131,0.0014697997381989002,6.8397693411854e-05,0.005069355998455354
17.02769172225898,0.0010763647508223984,4.595521014927585e-05,0.0037799242865064614
18.896523396912116,0.0005994484817308562,2.4388364690061283e-05,0.0021249418275397416
20.970464013232306,0.00023685588220630736,9.419111818865645e-06,0.0008432010814004009
23.27202478960412,6.399550078138947e-05,2.5198994039103807e-06,0.00022823621060112211
25.826187606826746,1.162619605962739e-05,4.559150185850703e-07,4.149525765677376e-05
28.66067616948256,1.4100526264086902e-06,5.520133360797897e-08,5.03418424234851e-06
31.80625692794119,1.1382969742414367e-07,4.4531993906574864e-09,4.064464801217089e-07
35.297073027306574,6.109041612686049e-09,2.3892903228082676e-10,2.1814374060000127e-08
39.17101490809261,2.1785847722648001e-10,8.519643196709165e-12,7.779523547799286e-10
43.47013158125035,5.161468063781725e-12,2.0183681800732066e-13,1.843127456516269e-11
48.241087041653735,8.123335779752178e-14,3.176534218716388e-15,2.9008013032611563e-13
53.535666774107185,8.492660604982614e-16,3.320929513830661e-17,3.032689398271495e-15
59.411339849650396,5.8978754349850906e-18,2.306270120267948e-19,2.106104898712231e-17
65.93188271333541,2.7207432754355883e-20,1.0639019615391306e-21,9.715654517128512e-20
73.16807143427206,8.337171479793362e-23,3.2601123299488414e-24,2.9771675170004936e-22
81.19844993184009,1.6970268928284428e-25,6.635940261248853e-27,6.060009124878875e-25
90.11018251665037,2.294549239419466e-28,8.972450883678573e-30,8.193735521546315e-28
100.0,2.060841746546787e-31,8.058576571470333e-33,7.359176274514096e-31
