tau,gamma,gamma_lo,gamma_hi
1e-07,3.7979896039293995e-05,3.4450855029166993e-06,0.00012156671059037271
1.1097524964120721e-07,0.00019409330208426057,1.7605615114324478e-05,0.0006199700238854899
1.2315506032928263e-07,0.0006687280376657136,6.0656865148592404e-05,0.00212542240715283
1.3667163564620074e-07,0.0015851042686010547,0.000143774804456625,0.004980269906545183
1.5167168884709241e-07,0.0026987937544471216,0.0002448375060161523,0.008275592155420232
1.6831803533309585e-07,0.003564577220604131,0.0003238024107384047,0.010473324511549536
1.867913599020781e-07,0.004034799726232171,0.00036829187847218256,0.011230152204473256
2.0729217795953698e-07,0.004247934841985439,0.0003920165572949652,0.011326611180898801
2.300430119772917e-07,0.0043427985172167175,0.00040653854020558964,0.011350864968432427
2.5529080682395163e-07,0.0043697436841836565,0.00041212078618356083,0.011318965746302466
2.833096101839324e-07,0.004330351428608415,0.00040400718256874404,0.011091580829472847
3.1440354715915e-07,0.004233029973648199,0.0003806040032161988,0.010696235111517235
3.489101213406774e-07,0.004085047622016378,0.00034890779070463444,0.010209433205851333
3.872038781812557e-07,0.003912251582967367,0.000333079796973397,0.009705688766697385
4.2970047043208437e-07,0.0037378668642815455,0.0003530647193892807,0.009229106422868203
4.768611697714474e-07,0.003574796593450198,0.00038862123833232373,0.0088202311237945
5.291978735958437e-07,0.0034248270975670895,0.00039406218345278273,0.008506100492670803
5.872786613189477e-07,0.00328325074322163,0.00035158786124613105,0.0082622926643061
6.517339604882421e-07,0.0031461293623247888,0.0002782508870760105,0.00803292393340868
7.232633896483533e-07,0.003011484673090777,0.00019879333854780812,0.00780568939813339
8.026433522257174e-07,0.0028905133493000146,0.00013751535094605406,0.007651022857579507
8.907354638610439e-07,0.002792460104308504,0.00010491902773418664,0.00758538620724616
9.884959046625586e-07,0.0027289642541318774,9.027940664150662e-05,0.007515816144081171
1.096985797892384e-06,0.002701519749771105,8.116425321175806e-05,0.007345252710309317
1.217382727739662e-06,0.0026997043033458097,8.161525843289134e-05,0.0071434332490923754
1.3509935211980278e-06,0.002703166018132049,0.00010271498684771739,0.007044436687081553
1.499268432786047e-06,0.0026999326464366494,0.0001417591102230128,0.007088671510017808
1.6638168860761274e-06,0.0026824658167761716,0.0001815965775339842,0.007216929884784191
1.8464249428955464e-06,0.0026458936225812976,0.00020337381841851196,0.0073438258510771775
2.049074689815846e-06,0.002590742930216982,0.00019265804086920075,0.00738560633892635
2.2739657523579273e-06,0.002524262530819831,0.0001568484001923844,0.007301936758429693
2.523539170434766e-06,0.0024688539464652252,0.00013252201550488624,0.007133318649919224
2.800503894183631e-06,0.0024291183851837656,0.00014302480575793258,0.006915572538876364
3.107866187782014e-06,0.0023804305442964553,0.00016645374446462132,0.006668620260196526
3.4489622604057595e-06,0.0022963379482381914,0.00017009276371586238,0.006394464480870043
3.827494478516315e-06,0.0022008712409146915,0.00015324243995052997,0.006126836399160626
4.247571552536894e-06,0.0021388564518141414,0.00013383777277127846,0.005918769779176841
4.713753134116729e-06,0.0021183818070328784,0.00011760185329719186,0.0058256259654896865
5.2310993080562585e-06,0.002112831629195893,9.80308348821221e-05,0.005882928958431148
5.805225516094895e-06,0.0021024971537888415,7.538579546015587e-05,0.00603367198575516
6.44236350872137e-06,0.002088878744868427,6.150660622658727e-05,0.006133074456680397
7.149428986597577e-06,0.0020780286072610474,6.188017496625429e-05,0.006112992837719866
7.934096665797492e-06,0.0020795605576516764,6.69508889187212e-05,0.006083783971749159
8.804883581643465e-06,0.002098987455915675,6.86067678222762e-05,0.0061563253345151845
9.771241535346501e-06,0.0021417695797771395,7.409826184270257e-05,0.0063218859042190306
1.0843659686896109e-05,0.0022047978316566204,9.319253019680623e-05,0.006492317282816691
1.2033778407775906e-05,0.002274906063553569,0.00011876892697162748,0.006598124674262255
1.3354515629298974e-05,0.0023310264843391664,0.00013364521539250616,0.006598867079128362
1.48202070579886e-05,0.0023676000061897437,0.0001335635939502658,0.006536515948888524
1.6446761779946626e-05,0.0023918561731279243,0.00012842194894136265,0.006507288748837994
1.8251834943190462e-05,0.0024068507937450526,0.00012848344549381592,0.006528639406653577
2.0255019392306664e-05,0.0024110541345279493,0.00013862539239324924,0.006524601192394733
2.2478058335487252e-05,0.002403848266916586,0.00015383462895891806,0.006456961700761057
2.4945081352303165e-05,0.0024004393042244415,0.00015720337253620576,0.006431776779389454
2.7682866303920665e-05,0.0024132934249283377,0.00013766008668409743,0.006552510498232557
3.072112998861759e-05,0.0024476659808014703,0.00011008210507421878,0.006801912718463113
3.409285069746814e-05,0.002499449171398157,9.718315785821068e-05,0.007076070734759543
3.783462617131933e-05,0.0025656824856672544,0.000100327964980395,0.007284681621832646
4.1987070844439056e-05,0.002641294163840639,0.0001058379242974671,0.007368299220554019
4.659525668664687e-05,0.002722437075581843,0.00010925705636602798,0.007374184429963985
5.170920242896755e-05,0.0028056926833625647,0.00011833137388154357,0.007441520114539875
5.7384416483024044e-05,0.002889316032155508,0.00013759002565747898,0.007642110180143592
6.368249944718586e-05,0.0029774550534616894,0.0001621799270028707,0.007936141061776425
7.067181273927492e-05,0.003067888209973962,0.00018714506672460422,0.008244114331697527
7.842822061337681e-05,0.003157085024115461,0.00021354015207306594,0.008518020898391992
8.703591361485166e-05,0.003241825717458176,0.00024275430369399267,0.008721674543725199
9.658832241158708e-05,0.0033423057355641468,0.00027052879981386593,0.008874053695560158
0.00010718913192051276,0.003479866754659254,0.0002875044338596488,0.009035773862166873
0.00011895340673703195,0.003656785592180738,0.00028583358390241626,0.009354179669476373
0.0001320088400831418,0.0038609859428651097,0.0002642146255652087,0.009994030443466004
0.00014649713983072864,0.004108700441825867,0.00024174872916894546,0.010934992959222898
0.0001625755666443795,0.004449335152354467,0.0002540904200044207,0.011983600167390524
0.00018041864093920718,0.004921596855533492,0.000305301146839712,0.013156791771756347
0.00020022003718155845,0.005542225920756597,0.00034829120799481227,0.014858663021741441
0.0002221946860939524,0.00634642416772225,0.00034818011602777405,0.017476214159948426
0.0002465811075822604,0.007438101297397972,0.0003353877290373085,0.021102579095626926
0.0002736439997074672,0.008978734972599172,0.00036466506056464235,0.025885530734010072
0.00030367711180354605,0.011218006225612889,0.00046516917217739396,0.032649494510702974
0.00033700643292719284,0.014619929663206766,0.0006468175622547477,0.043352595653649975
0.0003739937302478798,0.020235864515670606,0.0009262565627507619,0.06202032690450449
0.0004150404757850477,0.030487840120559075,0.00141556743879435,0.09567563136191712
0.00046059220411451084,0.050897775667304836,0.002715418518338827,0.15497695752679932
0.0005111433483440171,0.09260333354136152,0.007275832397445765,0.25582252854682763
0.0005672426068491978,0.1744354641624726,0.022611420457825618,0.4203671826972081
0.0006294988990221888,0.32067649972840356,0.06332455587663695,0.6733215224539352
0.0006985879746785249,0.5411867117153559,0.14345868995549163,1.0289858046918436
0.0007752597488629464,0.8015084436925616,0.2636011070170041,1.4615960743514191
0.000860346441668451,1.0371383755747738,0.40345918228673944,1.892695785334712
0.0009547716114208065,1.1799644852282198,0.5085589850731669,2.180239089735386
0.001059560179277617,1.1704663976179275,0.5127523043558677,2.1678454146848005
0.0011758495540521582,1.0216470311373298,0.4162808625506089,1.8770601120534387
0.0013049019780144017,0.8129338604354168,0.28383442014478794,1.4957011772497142
0.001448118227674533,0.6082841590330857,0.16779229616649946,1.1576393327159713
0.0016070528182616384,0.44014267677541685,0.08819592787084181,0.890841026922947
0.0017834308769319094,0.3178010146173724,0.04497100536783084,0.683077690292675
0.0019791668678535573,0.235824055878269,0.025320810364018963,0.5277152162838482
0.002196385372416547,0.1847469859296122,0.016207170555859237,0.42182964790271066
0.002437444150122222,0.15476917086313513,0.011437114968554353,0.35402613339606454
0.002704959730463137,0.13808594432625715,0.009294032188090098,0.31062805848679725
0.0030018358135755923,0.13013243892148232,0.008669844160157432,0.2846704450053061
0.003331294787934677,0.1289002537473143,0.0083990021934194,0.27565497378130266
0.0036969127071950323,0.13405645417654435,0.008539827252579063,0.28462766280192636
0.00410265810582719,0.14691308414040585,0.010476484513051965,0.31362065141102474
0.004552935074866948,0.1712127210324429,0.015437230054836914,0.3680010833517956
0.00505263106533568,0.2136906307539982,0.023832788298381494,0.45695918569964206
0.005607169938205458,0.28208273942676576,0.03600393870906915,0.5892610617069215
0.006222570836730231,0.38275382244298917,0.0541850823848064,0.769175386751416
0.006905513520162331,0.5208697894020942,0.08940968729952646,1.0046320773786201
0.007663410868007463,0.6958911783945931,0.16706693275910814,1.3102920484682306
0.008504489341802686,0.8906055278149323,0.30285717447151456,1.673238370891498
0.009437878277775391,1.0561681246332808,0.45229701040167486,1.9965972376984154
0.010473708979594508,1.119785063379459,0.5264621391422872,2.121646099022604
0.011623224686798541,1.0528777066024604,0.4886668933368192,1.9916094435983367
0.01289890261253308,0.8854407806781984,0.3734697786234793,1.6834872892033523
0.014314589375234785,0.6648029488543951,0.2315858451325212,1.2971160383993947
0.015885651294280528,0.4501786582072852,0.1121199739107648,0.9283158373013423
0.01762914118095948,0.28337984556191,0.04279660181299696,0.6361505673688724
0.01956398343517065,0.17080062086350173,0.014619207524792793,0.4266496808657135
0.021711179456945052,0.10228710991134626,0.005816639879539529,0.28347031523355026
0.02409403560239527,0.06337855828030015,0.0031923770106447712,0.18785860440035532
0.026738416158399492,0.04147106436902672,0.0020981664564570113,0.1258430709865716
0.029673024081888724,0.028708647979875178,0.0013739493122648257,0.08669883587392244
0.032929712550971546,0.021076814221917418,0.0008696971017389485,0.06223976345151033
0.036543830709572546,0.016478595756573337,0.000586925159694582,0.046852997958238926
0.040554607358408275,0.013653948347883348,0.00048093721490895307,0.036997664810496454
0.04500557675700498,0.011840230484993481,0.00048791394741429727,0.030653649473382248
0.0499450511585514,0.010625462265073986,0.0005408759733834281,0.02685796787987634
0.05542664520663107,0.009761265492999703,0.0005860643627212229,0.02491007933877951
0.06150985788580504,0.009074535910094314,0.0005950867221089835,0.02375752868913487
0.06826071834272393,0.008446831421021489,0.0005614762828307802,0.022423839018073096
0.0757525025877192,0.007882914512911569,0.0005135022850265925,0.02091782746917165
0.08406652885618333,0.007454498111190502,0.0004934898333223154,0.01983114157069284
0.09329304026284696,0.007176996898256457,0.000508781899521064,0.01929970895354488
0.10353218432956637,0.00700577636500669,0.000531484325612857,0.018928749812773538
0.11489510001873086,0.006895833210132726,0.0005390606953923972,0.01842855950779845
0.1275051240713013,0.006834300418814889,0.0005278193080592762,0.017883564396958596
0.1414991297434576,0.0067970530805398196,0.000496860110717873,0.017424440449606525
0.15702901247293774,0.0067502179877083224,0.00044451021571990533,0.017114014725174105
0.17426333860096507,0.006672033251392048,0.00038277762519525575,0.01696622864634635
0.19338917504552322,0.00662336375974086,0.00035968642726107636,0.01705971605098503
0.21461411978584058,0.006672511888611541,0.0004251803589141652,0.01740254719170666
0.23816855519761607,0.006800461705350328,0.0005621046211168392,0.017766135714958928
0.2643081486974108,0.0069182288913206295,0.0007011160376943515,0.017796669995189574
0.29331662783900486,0.006986068556739026,0.0007928279915099786,0.017522877248940562
0.32550885998350565,0.007029255893045511,0.0008188814842140849,0.017374321965732596
0.36123426997094304,0.007062653033331205,0.0007827027153386784,0.017549767299704977
0.40088063288984643,0.007077667522475919,0.0007097116029093042,0.01781832227333301
0.4448782831127585,0.007053503321224209,0.0006297997030700828,0.017907531229869426
0.4937047852839004,0.007005448676402083,0.0005766399636511494,0.017861865095067996
0.5478901179593945,0.006950651633654974,0.0005791291076945211,0.01781127782934869
0.6080224261649427,0.0069146718871737,0.0006460523302698369,0.017816387141397647
0.67475440531107,0.006903041092681165,0.0007577518161013646,0.017818798335976063
0.748810385759003,0.006889189160483375,0.000847763406884381,0.017705266612678572
0.8309941949353403,0.006822641501747841,0.0008313818213075704,0.01734800678963337
0.9221978823334341,0.006689108623776156,0.0007243466046561334,0.016767741902960067
1.0234114021054528,0.006528424657856899,0.0006509496653200193,0.0161840213292832
1.135733358343105,0.006365668785200369,0.0006657059888421421,0.015762430413156715
1.2603829296797273,0.006206745421761661,0.0006762958699698351,0.015553163497285475
1.3987131026472386,0.006042534879002767,0.0005953870510232321,0.015463061074291035
1.552225357427048,0.005889409783080065,0.00047088536554928744,0.015303607523848628
1.7225859653987874,0.005760541114218834,0.00039443765096242505,0.014933200200408968
1.9116440753857036,0.00566192566788731,0.00037802204066556065,0.014559326353346903
2.121451784910632,0.0055918702781075705,0.000376839286311928,0.014518310577096575
2.35428641432242,0.005565434982307244,0.0003619673781170452,0.014807191809351285
2.612675225563332,0.0056069208504031355,0.0003323164529593876,0.015101305500849217
2.8994228538828812,0.005704943492435398,0.00029856620360778694,0.01519698234463999
3.2176417502507353,0.005809558920072706,0.0002783982643502463,0.015153383006900615
3.5707859649004625,0.005883052124238913,0.0002900024468980132,0.015057856763121016
3.9626886387014784,0.005946955154751115,0.0003471344598323278,0.014971664943107687
4.397603609302721,0.0060215501230253075,0.00044209813351034577,0.014946907088766977
4.880251583654434,0.006106313875591453,0.0005240449193396042,0.01514327787255373
5.415871378079476,0.006180994432107546,0.0005363753560320278,0.015702030979320745
6.010276782070388,0.006252933980255553,0.00048481716889245874,0.016588575552998128
6.669919663030129,0.0063349724272799635,0.0004156451148458979,0.01756630475246693
7.401959996915652,0.006415466098559355,0.0003541444093130382,0.018301926410953736
8.214343584919439,0.006451890328396852,0.0002987952303219045,0.018438704331518046
9.115888299750837,0.006399038196819017,0.00024616239936422807,0.017980482903224643
10.11637979766207,0.006238292729262243,0.0002031655123374608,0.01745007650200212
11.226677735108158,0.005975131543696915,0.0001754314847763032,0.01724474745285134
12.458833642950081,0.005663142457983858,0.00015924840511533369,0.017262711132070112
13.826221737646593,0.005264038617314411,0.00014564303077831492,0.016899454767821797
15.343684089300131,0.004552033312691536,0.00012476821341608193,0.015154243202335308
17.02769172225898,0.003323702174645596,9.05397830962995e-05,0.01129670102462646
18.896523396912116,0.0018494392279184305,5.0210341435086295e-05,0.0063497464902119855
20.970464013232306,0.0007305637272732391,1.980283018221239e-05,0.0025194889613484386
23.27202478960412,0.0001973715361496087,5.346371112049475e-06,0.0006819517684481326
25.826187606826746,3.5855708636278266e-05,9.709805638100634e-07,0.00012398309970618762
28.66067616948256,4.348609184975923e-06,1.1774773360091109e-07,1.504149644082014e-05
31.80625692794119,3.510495369278999e-07,9.504958789540986e-09,1.2144075484342317e-06
35.297073027306574,1.8840178292450373e-08,5.101038410827818e-10,6.5178371161939e-08
39.17101490809261,6.718712013873721e-10,1.8190987307093958e-11,2.324414668843507e-09
43.47013158125035,1.591785925848065e-11,4.3097646298297036e-13,5.507010697508883e-11
48.241087041653735,2.5052193756102066e-13,6.782879575101161e-15,8.667193856773537e-13
53.535666774107185,2.619118216905128e-15,7.091256984033284e-17,9.061257085479711e-15
59.411339849650396,1.818892025239204e-17,4.924645260480806e-19,6.292750514673192e-17
65.93188271333541,8.390713327517197e-20,2.2717831841162564e-21,2.90290335430391e-19
73.16807143427206,2.5711656158342606e-22,6.961423163954473e-24,8.89536525201957e-22
81.19844993184009,5.233594151319551e-25,1.4169940214087545e-26,1.8106470078610308e-24
90.11018251665037,7.076340111571069e-28,1.915916917909347e-29,2.4481749773205812e-27
100.0,6.3555912684785945e-31,1.720774385529133e-32,2.1988202035438612e-30
