tau,gamma,gamma_lo,gamma_hi
1e-07,0.0005861784212241514,3.2811690447811034e-05,0.0020043164576177513
1.1097524964120721e-07,0.002996189337458608,0.0001699294276811805,0.010226881971550616
1.2315506032928263e-07,0.010327806539185842,0.0006041702565217744,0.03510306990482946
1.3667163564620074e-07,0.024506741760224326,0.001535694785620459,0.08248020470741152
1.5167168884709241e-07,0.04182447761022539,0.0029993428279124147,0.1378173487776202
1.6831803533309585e-07,0.05549965828846454,0.0049338747569940625,0.17587370398749932
1.867913599020781e-07,0.06330812641096507,0.007332679211145271,0.1895045860066591
2.0729217795953698e-07,0.06737613444538909,0.010117956335082352,0.1889439092328306
2.300430119772917e-07,0.06974673315502025,0.012869798162312375,0.18336137103622827
2.5529080682395163e-07,0.07105011698323596,0.01476870161109117,0.17568646734637944
2.833096101839324e-07,0.07147949625887519,0.015527691389422024,0.16654710881042148
3.1440354715915e-07,0.07181420467579326,0.01598730123573395,0.15812435333310942
3.489101213406774e-07,0.07254586348010801,0.016944524176741218,0.1522653045110469
3.872038781812557e-07,0.0733493939176937,0.018145853036658954,0.14904040379475383
4.2970047043208437e-07,0.0734437960474037,0.018803555945362985,0.1472959265603364
4.768611697714474e-07,0.07271518538800105,0.018597496388319288,0.14612191646817468
5.291978735958437e-07,0.07143674212988275,0.017575977238981667,0.144847682701599
5.872786613189477e-07,0.06971790787834635,0.01582726570855214,0.14323745806152888
6.517339604882421e-07,0.06753858236661293,0.013496096306345545,0.14153592924485978
7.232633896483533e-07,0.06517266753737286,0.010998244826279716,0.14028871041076274
8.026433522257174e-07,0.06352229492486894,0.009173364743791176,0.14047435981523176
8.907354638610439e-07,0.06297576810704765,0.008429467643701989,0.14190576174520783
9.884959046625586e-07,0.0629263624311355,0.00821180232976126,0.1427700604094178
1.096985797892384e-06,0.06258672380608533,0.007904370591698935,0.14143205913729542
1.217382727739662e-06,0.062217490474989395,0.007781099340587252,0.13946084750925244
1.3509935211980278e-06,0.06240554161646071,0.008432298581938398,0.1393964473320576
1.499268432786047e-06,0.0630495743318287,0.009630803615443002,0.14139108004809767
1.6638168860761274e-06,0.06338665893909846,0.010468757994724194,0.14331249613319078
1.8464249428955464e-06,0.06293697622455019,0.010451699057556059,0.14327456636136587
2.049074689815846e-06,0.06178119165133902,0.009699022686572481,0.14048291428656248
2.2739657523579273e-06,0.06027260953411566,0.008468812642387781,0.1354639621113843
2.523539170434766e-06,0.05911879940182468,0.007025814664534172,0.13072847807869367
2.800503894183631e-06,0.05868502354100046,0.005562190089849836,0.12838460281986241
3.107866187782014e-06,0.05879645935006861,0.004282444515448113,0.12909677293183675
3.4489622604057595e-06,0.059155152086944995,0.0035405886446274893,0.13236821185115433
3.827494478516315e-06,0.060141721442395636,0.003939261642419866,0.13717983295285188
4.247571552536894e-06,0.062258966347066264,0.005904200188866678,0.14207081471246683
4.713753134116729e-06,0.06516472930123604,0.008606154144788913,0.14602316464303355
5.2310993080562585e-06,0.0677019663936742,0.010268345535210341,0.14835918834360756
5.805225516094895e-06,0.06915063250150012,0.010195699898865877,0.14922660824266828
6.44236350872137e-06,0.06962494365617167,0.009157334189531682,0.14972580155184145
7.149428986597577e-06,0.0696910300820677,0.007884732380239644,0.15050880807740866
7.934096665797492e-06,0.0704507482636792,0.006536894907207487,0.1516950957007865
8.804883581643465e-06,0.07259235355290776,0.005524490455436511,0.15311773818482663
9.771241535346501e-06,0.07587470106714754,0.006314074256019924,0.15533755707946614
1.0843659686896109e-05,0.07949543051149165,0.010295722698150572,0.1587390062539139
1.2033778407775906e-05,0.08297775196130777,0.01670831013000281,0.1631090907685973
1.3354515629298974e-05,0.086029396548421,0.02324475468505082,0.1675837466863713
1.48202070579886e-05,0.08875904359042791,0.0280912704786212,0.17181836151009042
1.6446761779946626e-05,0.09152864932098993,0.030230946099217348,0.17628924164893542
1.8251834943190462e-05,0.09469353019949668,0.030042820874171892,0.18273300765800166
2.0255019392306664e-05,0.09857149030897297,0.029324590369981134,0.1940533416959568
2.2478058335487252e-05,0.1030325688299887,0.029194792270167223,0.21071074262741468
2.4945081352303165e-05,0.10756464382808728,0.029163704894021803,0.22879587364573722
2.7682866303920665e-05,0.11166992827998522,0.028613818227108317,0.24392977292092594
3.072112998861759e-05,0.11587865218061888,0.02842152522200908,0.25623292218244786
3.409285069746814e-05,0.12077442604831021,0.02989881467019589,0.2673143218097455
3.783462617131933e-05,0.1262362195632924,0.03296951126402764,0.2776664182276558
4.1987070844439056e-05,0.13143359682531564,0.036477910488392454,0.28595583173257694
4.659525668664687e-05,0.1360881787896208,0.039809611087671566,0.2909441276346374
5.170920242896755e-05,0.14057855264675417,0.04311785094268287,0.2922626341529066
5.7384416483024044e-05,0.1453526249602316,0.04682648865960455,0.29159351117090826
6.368249944718586e-05,0.1508732793908915,0.051244768876521386,0.2937289494805533
7.067181273927492e-05,0.15703390969971454,0.05574428407560943,0.3016265327702775
7.842822061337681e-05,0.16335303481631963,0.058472084639575525,0.3143115146226798
8.703591361485166e-05,0.1692205228345607,0.05850308835559041,0.3296442185209047
9.658832241158708e-05,0.17517688624288366,0.058939611763999485,0.348378212904746
0.00010718913192051276,0.18166135671730088,0.06390524553025081,0.3700544527395687
0.00011895340673703195,0.18799564414099085,0.07288422361402393,0.38763642599606596
0.0001320088400831418,0.19251615354221102,0.08155099768686597,0.39014490837979965
0.00014649713983072864,0.19495208015901283,0.08747349738953021,0.37807544022479284
0.0001625755666443795,0.19674022904075325,0.09093792170311733,0.36513100737645837
0.00018041864093920718,0.19855483362824672,0.09204791174352157,0.3595815097523449
0.00020022003718155845,0.1998479998935911,0.08984128083072813,0.35771607355359797
0.0002221946860939524,0.19975284107582922,0.08410305694110741,0.35332995362022485
0.0002465811075822604,0.1989115876889699,0.07777006666448434,0.34675125568691795
0.0002736439997074672,0.1979431128524753,0.07382699097799957,0.34057447769671867
0.00030367711180354605,0.19684145581381385,0.07175234001899555,0.33612513491532464
0.00033700643292719284,0.19487298147054444,0.06931049379164014,0.3326108277863413
0.0003739937302478798,0.1918408688066292,0.0668227605925114,0.32838821483019365
0.0004150404757850477,0.1880771438452605,0.06680094606633834,0.3219098268058643
0.00046059220411451084,0.1838974127457699,0.06959245817945439,0.3142262698690282
0.0005111433483440171,0.17974405256112116,0.07244999459522201,0.309483562934057
0.0005672426068491978,0.1755175922256003,0.07331810925722018,0.308427962531023
0.0006294988990221888,0.17105823116784888,0.07295109911230103,0.30622282492588604
0.0006985879746785249,0.16617282790672563,0.07232083015234109,0.29793145454414627
0.0007752597488629464,0.16173052110006578,0.07088210973556938,0.2855133590935497
0.000860346441668451,0.15851681587459332,0.06751957915176147,0.27349073025638354
0.0009547716114208065,0.15646168065108557,0.06274961912877186,0.2647237892192484
0.001059560179277617,0.15467974772286736,0.05788425613392352,0.25984827158511453
0.0011758495540521582,0.15248224400595364,0.05283757582095959,0.2576875547511888
0.0013049019780144017,0.14975275233672145,0.04674003614770959,0.25615023868444625
0.001448118227674533,0.14727978092344116,0.04117763349304543,0.25444748610121737
0.0016070528182616384,0.14701676437062425,0.0408325105883561,0.25412373290982665
0.0017834308769319094,0.1496936596212858,0.04675648310261434,0.2562431152149893
0.0019791668678535573,0.15396370642602197,0.05239635050307593,0.2607560585972698
0.002196385372416547,0.15853887481343024,0.052673558177339146,0.2671258103737913
0.002437444150122222,0.16508982375460884,0.053656588964560256,0.2762637401737135
0.002704959730463137,0.17594733033744028,0.06487338259797636,0.2888523630326164
0.0030018358135755923,0.19089915579376082,0.08576351976456534,0.3039909048473092
0.003331294787934677,0.20736539032991105,0.10798295477551566,0.3192729938901043
0.0036969127071950323,0.2235981899080545,0.12723650163160977,0.33392420652942895
0.00410265810582719,0.2389242090822405,0.14446676307215087,0.34883682523765985
0.004552935074866948,0.2532340424072674,0.16043199141359696,0.36456801926786353
0.00505263106533568,0.2669335859122314,0.1735709453093765,0.3811361264357736
0.005607169938205458,0.280094745571392,0.1830710361878067,0.3983603778333619
0.006222570836730231,0.29296714471965096,0.1920194180856644,0.4172438763202471
0.006905513520162331,0.3047691425642758,0.20309527967479177,0.43609769367959783
0.007663410868007463,0.31426233742457155,0.21472770993227452,0.4486317111619519
0.008504489341802686,0.319613031732044,0.22289353876099238,0.44754715521115757
0.009437878277775391,0.3210423479390444,0.22680029022098175,0.4365642453807286
0.010473708979594508,0.31982088762856364,0.22771452174690598,0.42685006444609924
0.011623224686798541,0.3161169502535086,0.224810031373475,0.42214149344495144
0.01289890261253308,0.3090842864990165,0.2152479534278057,0.41684657025888155
0.014314589375234785,0.2982894672356532,0.19960435942203542,0.4058825006717136
0.015885651294280528,0.2857293980180859,0.18543282136961556,0.39085224860202933
0.01762914118095948,0.27274787886507024,0.17802150882365456,0.37417237747417664
0.01956398343517065,0.2594693249239503,0.17392416107361539,0.35699126123487257
0.021711179456945052,0.24495416823439278,0.16670058112164882,0.338718942037776
0.02409403560239527,0.22913655311158818,0.1552838037521176,0.31913798375262775
0.026738416158399492,0.21230371220188032,0.14196703865486918,0.29811182030058897
0.029673024081888724,0.19458152052506406,0.12765620857517307,0.2757894464910203
0.032929712550971546,0.17625868768646136,0.11180060466717757,0.25301634659653827
0.036543830709572546,0.15799526240165687,0.09487665639746157,0.23100609133799085
0.040554607358408275,0.14148968105628829,0.07957455274055646,0.2119131894793413
0.04500557675700498,0.1272871424195597,0.0671847711704175,0.1957931941721292
0.0499450511585514,0.11443573567058203,0.05618719515694784,0.18012855232590633
0.05542664520663107,0.10179059756514812,0.044660619068839,0.16266129963375744
0.06150985788580504,0.08984424815829117,0.03285754650422945,0.14517748071402975
0.06826071834272393,0.0797044527481265,0.022531182407146123,0.1307351220990555
0.0757525025877192,0.07176078651805066,0.01575042899690044,0.12003927728389174
0.08406652885618333,0.06583584068015268,0.014134666361886853,0.11211276451776603
0.09329304026284696,0.06156404013695281,0.016415629443750787,0.10638859273986127
0.10353218432956637,0.05859479139740569,0.01879335068783703,0.1030843396296463
0.11489510001873086,0.05640579853918658,0.018865843140555016,0.10170490041541373
0.1275051240713013,0.054359736123455536,0.01689090437191634,0.10071065898823116
0.1414991297434576,0.05196054474605284,0.014114523873611957,0.09878628076844698
0.15702901247293774,0.04926619759574541,0.011974153068756483,0.0960229491222828
0.17426333860096507,0.046349237903696903,0.011198557872412722,0.09257958659044034
0.19338917504552322,0.043133974586659365,0.010939481818503861,0.08807425116189349
0.21461411978584058,0.039462151194317785,0.009832228465534047,0.08192184484250128
0.23816855519761607,0.03553244265007822,0.007765724455848865,0.07476673413907109
0.2643081486974108,0.03179820669537839,0.005625020845395852,0.0680571920234877
0.29331662783900486,0.028410846938826492,0.0039350113693036185,0.06222074936090614
0.32550885998350565,0.025280743242577945,0.0026591413479270373,0.05670176109710297
0.36123426997094304,0.02237658051456856,0.00166900498512849,0.05117216643493318
0.40088063288984643,0.019976166320588875,0.0009870503445935572,0.046300044228904325
0.4448782831127585,0.018258435288090773,0.0006601411790368745,0.042645793323554955
0.4937047852839004,0.01708248475075132,0.0006272528019660626,0.04007521692136998
0.5478901179593945,0.016160492169530787,0.0007778775370456349,0.03806463423863593
0.6080224261649427,0.01529998273871886,0.0009922670323282044,0.03620027459554238
0.67475440531107,0.01438587304637671,0.0011560575965427933,0.034262990930322514
0.748810385759003,0.013392641638798799,0.0012012308268216601,0.03245979576930055
0.8309941949353403,0.012360285875962074,0.0011028181753699414,0.031194504946891865
0.9221978823334341,0.011337251621999802,0.0009040710697942763,0.030281626828320807
1.0234114021054528,0.010394668679438742,0.0007136726832210797,0.028932276008545095
1.135733358343105,0.009531922197919639,0.0005921761232383786,0.026744942045668737
1.2603829296797273,0.008690295051080965,0.000510250522618278,0.024309977576902217
1.3987131026472386,0.007814741689028076,0.00042992676950268696,0.02221035955457844
1.552225357427048,0.006962229687391393,0.00036858474756485164,0.020400813933178018
1.7225859653987874,0.00621708758104538,0.00035704600373376863,0.01857577438953776
1.9116440753857036,0.0056087548091587145,0.00037536239197861343,0.01678363636779538
2.121451784910632,0.005126081624889509,0.00037193285392608154,0.015313612600343664
2.35428641432242,0.004748248456885525,0.00032431551312140484,0.01427256001317731
2.612675225563332,0.0044568894578782756,0.00024679360524109393,0.013552463642814648
2.8994228538828812,0.004213597690368757,0.00017139024640966415,0.012940509278193528
3.2176417502507353,0.0039673675214866675,0.00013835292371140013,0.012218612576555578
3.5707859649004625,0.0036914593188244168,0.00015581918688976277,0.011325679739152172
3.9626886387014784,0.0034277897064214128,0.0001782175559943548,0.010522196296905354
4.397603609302721,0.0032355160296926597,0.00016517850108974694,0.010112627859788899
4.880251583654434,0.0031657752080539313,0.00013628490034181052,0.01024618848362548
5.415871378079476,0.003246872251257967,0.00013119791830966165,0.010916972290852592
6.010276782070388,0.00346155925722776,0.00014794961176365116,0.011947267727117013
6.669919663030129,0.0037663343244090835,0.00015443369395666626,0.013064644903285369
7.401959996915652,0.004153336110376728,0.00013750154862375455,0.014170539414293129
8.214343584919439,0.004669122661001436,0.00011162085409427266,0.01536709593816871
9.115888299750837,0.0054388603292499105,0.00010417444135359521,0.016918782833018287
10.11637979766207,0.006683883106752564,0.0001795759341655868,0.019204060912131962
11.226677735108158,0.008641075476870477,0.0005110481067237337,0.022353030573189173
12.458833642950081,0.011356666284399273,0.0013737502572461057,0.02583857404752358
13.826221737646593,0.014180833199711786,0.002742861306455292,0.028272406393612746
15.343684089300131,0.015202885331488334,0.0037864053240853884,0.027356318672112242
17.02769172225898,0.012574118581071264,0.0035263410208273764,0.021304571660668743
18.896523396912116,0.007434589490893571,0.002195044146164573,0.012234117247412652
20.970464013232306,0.0030163559950376934,0.0009098718607804638,0.004900475353888599
23.27202478960412,0.0008240983796807125,0.00025077927111540743,0.0013317023498006617
25.826187606826746,0.00015040196010411653,4.593226298880142e-05,0.000242508196060917
28.66067616948256,1.8275119990653027e-05,5.58925490192438e-06,2.944044537551191e-05
31.80625692794119,1.4764162107328168e-06,4.5181163128164053e-07,2.37758048185644e-06
35.297073027306574,7.92609594246204e-08,2.4261136296127865e-08,1.2762091499031607e-07
39.17101490809261,2.826926814743733e-09,8.653825957482658e-10,4.551465183612871e-09
43.47013158125035,6.697845863698834e-11,2.050433318970298e-11,1.0783539580540075e-10
48.241087041653735,1.0541566060920902e-12,3.2271747316456333e-13,1.6971767899569298e-12
53.535666774107185,1.1020925583056196e-14,3.3739464532200554e-15,1.7743459661704038e-14
59.411339849650396,7.653698371254789e-17,2.3431094733990515e-17,1.232227458285885e-16
65.93188271333541,3.5307250315831534e-19,1.080900175611645e-19,5.684380681421716e-19
73.16807143427206,1.0819203838000967e-21,3.312204765145604e-22,1.7418648189226165e-21
81.19844993184009,2.202243766816424e-24,6.74197811241772e-25,3.545557132416488e-24
90.11018251665037,2.97765299589216e-27,9.115826784431415e-28,4.7939463031247836e-27
100.0,2.674369203804872e-30,8.187349948659428e-31,4.3056669641619136e-30
