freq,Zreal,Zimag,sigma_re,sigma_im
1000000.0,0.9970815556675283,0.0005406860339670543,0.0022680265753854925,0.002091833970965382
794328.2347242822,0.9972537563808187,0.00013611482507545447,0.0022682560940531877,0.0020920195886420137
630957.344480193,0.9974476776172427,-0.00018710800179834008,0.0022685711309435893,0.002092289170105079
501187.2336272725,0.9976552413664653,-0.00043836932195806294,0.0022689346852787597,0.0020926058549044697
398107.17055349686,0.9978680833513394,-0.0006279525889757493,0.0022693177537957635,0.002092941488586457
316227.7660168379,0.998079094904883,-0.0007669031839129144,0.0022696998135073075,0.0020932766098222207
251188.6431509582,0.9982831769428059,-0.000866310724725239,0.0022700681462171583,0.0020935994564947793
199526.2314968879,0.9984772839591597,-0.0009365882827287446,0.002270416256498859,0.0020939042337393167
158489.3192461114,0.9986600680125466,-0.0009870316477382111,0.0022707420548443015,0.002094189262253019
125892.5411794166,0.9988313988693717,-0.001025686078767462,0.002271046269368796,0.0020944554185437047
100000.0,0.9989919151465289,-0.0010594445898115337,0.0022713312441454796,0.0020947049947219283
79432.82347242821,0.9991426741073377,-0.0010942928410497875,0.002271600131215744,0.0020949409662064894
63095.7344480193,0.9992849203773077,-0.001135625742297595,0.002271856443557872,0.0020951666175027302
50118.72336272724,0.9994199561642447,-0.0011885759633010735,0.00227210390635714,0.0020953854513631673
39810.71705534969,0.9995490685676335,-0.0012583279851482482,0.0022723465150457324,0.0020956012883196215
31622.776601683792,0.9996734726210401,-0.0013504333697762416,0.0022725887283068387,0.0020958184912498886
25118.864315095827,0.9997942583965072,-0.0014711644534257141,0.002272835797944522,0.0020960423265030713
19952.623149688792,0.9999123571033192,-0.0016279341910586927,0.0022730943164810053,0.0020962795540402862
15848.93192461114,1.000028542954248,-0.0018297898201290613,0.0022733731154966257,0.0020965393926827896
12589.254117941662,1.0001434717361306,-0.0020879825557390914,0.002273684696869476,0.0020968350563838217
10000.0,1.0002577451839518,-0.002416629133123529,0.0022740474720387375,0.0020971861549190195
7943.282347242814,1.0003719936021447,-0.0028334989779319176,0.0022744892500243512,0.002097622431676524
6309.57344480193,1.0004869796550517,-0.003360969676430422,0.002275052668939554,0.0020981895875185137
5011.8723362727205,1.0006037299120392,-0.004027196646994615,0.0022758036458164423,0.002098958349025399
3981.0717055349687,1.000723696734837,-0.004867555504411799,0.0022768445121033637,0.0021000385738096806
3162.2776601683795,1.0008489568007655,-0.005926445029910918,0.0022783344529524376,0.0021016012012791815
2511.8864315095802,1.0009824793509392,-0.007259573693661049,0.0022805213775513792,0.0021039124619446825
1995.2623149688789,1.001128544016685,-0.008936874146470495,0.0022837916472148094,0.002107387186621483
1584.8931924611124,1.001293436773502,-0.011046196193113866,0.002288747433883449,0.002112671557533643
1258.9254117941662,1.0014866008474084,-0.01369794001008227,0.0022963261465696926,0.0021207704427255313
1000.0,1.0017224940438125,-0.01703081931857884,0.00230798241446808,0.002133240471908647
794.3282347242813,1.0020235348436086,-0.02121897482348125,0.002325959732645038,0.002152476067411655
630.957344480193,1.0024247299043825,-0.026480673201063086,0.0023536830939770146,0.0021821180687187362
501.187233627272,1.0029809096407418,-0.0330888037684786,0.002396298714777534,0.0022276053157676747
398.10717055349687,1.0037780282448798,-0.04138325633993547,0.0024613594965238773,0.0022968551873755686
316.227766016838,1.0049507807081635,-0.051784886945442594,0.002559589432820432,0.0024009862863439897
251.18864315095797,1.0067098997480377,-0.06480990994963368,0.0027055533745993,0.00255489088138273
199.5262314968879,1.0093839034465364,-0.0810817794220394,0.002917946123924295,0.0027773763330442565
158.48931924611125,1.0134815431444988,-0.10133422168848012,0.0032191754764448483,0.003090604208350625
125.89254117941664,1.0197819161640354,-0.12639289472354645,0.0036339910203039057,0.0035186706813480494
100.0,1.0294568036319285,-0.1571126808362843,0.0041869814310367525,0.0040852111298706265
79.43282347242804,1.0442188042610578,-0.194232186154576,0.004898565098715831,0.004809611346887746
63.09573444801929,1.0664590813809045,-0.23809066748712387,0.005778565860588725,0.00570079264857076
50.11872336272725,1.0992772094331285,-0.2881531673277019,0.006816136178030225,0.006747228924881825
39.81071705534969,1.1462137762019826,-0.3423512262501035,0.00796591674056206,0.007903070717497084
31.622776601683796,1.2104344434156826,-0.39643300308542406,0.00913441254954093,0.009074414808871828
25.118864315095767,1.2932528231848681,-0.4438262944510194,0.010177477927122442,0.010116688718818937
19.95262314968879,1.3924104405426605,-0.4766969603766836,0.010923836531559039,0.010858136063033715
15.848931924611108,1.5012609839759645,-0.4884106812746566,0.011229206269846645,0.011153994824761126
12.589254117941664,1.6100352576015968,-0.4763578771797035,0.011038239591797328,0.010948549608281214
10.0,1.708987925598163,-0.4432211818150268,0.01041215976586987,0.010302879540068564
7.943282347242805,1.7915307957803657,-0.39567748364924354,0.00949993381153617,0.009366116601208691
6.30957344480193,1.8554687942732762,-0.3415630226114474,0.00847544789344603,0.008312711587456183
5.011872336272715,1.9021610012884218,-0.28742333554996824,0.007482807671844293,0.007287849349865858
3.981071705534969,1.9347937250311227,-0.23747410422928827,0.0066124399231089525,0.006383614541311259
3.1622776601683795,1.9569088272762345,-0.19375223714110318,0.005903584261364075,0.005641353390613707
2.5118864315095766,1.9715968685108192,-0.15677126687690163,0.00535867322060445,0.005065661011487155
1.9952623149688788,1.9812369319564287,-0.12618027379697744,0.004958905947818229,0.004639432048047456
1.584893192461111,1.9875305044654539,-0.10123608207924725,0.004676547642890188,0.004335782949098398
1.2589254117941662,1.991640809597936,-0.0810835181006585,0.00448305984650355,0.0041261435164788715
1.0,1.994341143340478,-0.06489873580142402,0.004353520861713097,0.003984933554472037
0.7943282347242805,1.9961367749048529,-0.051950481681530845,0.004268272649306665,0.0038915625522756084
0.6309573444801929,1.9973544027205015,-0.04161761010903494,0.0042128546578212465,0.0038306413198961452
0.5011872336272715,1.998203962917592,-0.033385691858193456,0.004177136992303369,0.0037912605260713725
0.3981071705534969,1.9988198884239323,-0.02683507668319341,0.004154259338840417,0.0037659688757346555
0.31622776601683794,1.999288109575319,-0.02162658383219423,0.004139680685475787,0.003749805065351959
0.2511886431509577,1.9996635281527486,-0.017487631517583212,0.004130440223856253,0.0037395213527080026
0.1995262314968879,1.9999812502142165,-0.014199908412087752,0.004124626029050177,0.0037330149343997193
0.1584893192461111,2.0002637630897975,-0.011588885657921058,0.004121010762636246,0.0037289335397184455
0.12589254117941662,2.000525487759314,-0.009515122510214203,0.0041188091020151925,0.0037264109029509227
0.1,2.0007756496370517,-0.007867178410702178,0.004117519160757077,0.003724893034836686
0.07943282347242805,2.001020084672379,-0.006555885074615867,0.004116820009379657,0.0037240256112161074
0.0630957344480193,2.001262359612965,-0.00550972499556398,0.004116505898372688,0.0037235815405650533
0.05011872336272714,2.001504416982597,-0.004671103949577737,0.0041164441322346975,0.0037234145279638237
0.039810717055349686,2.001746855587567,-0.003993374967172832,0.004116548000858929,0.003723429262251908
0.031622776601683784,2.00198892118939,-0.0034385504776306515,0.004116759234947272,0.003723562160754553
0.02511886431509577,2.002228312082127,-0.002975704081121881,0.00411703655923813,0.003723768877599675
0.019952623149688792,2.002460989215832,-0.0025800689171618213,0.004117348377466383,0.003724016348769617
0.01584893192461111,2.0026812679204564,-0.0022327454832986996,0.004117668585168152,0.0037242781710148886
0.01258925411794166,2.0028824715499876,-0.0019207356007852267,0.0041179749997664866,0.0037245326414673584
0.01,2.00305823982406,-0.0016367940126869101,0.004118249876018622,0.0037247628209052274
