freq,Zreal,Zimag,sigma_re,sigma_im
1000000.0,0.9924334330286118,0.0019203644433716071,0.008145670486125698,0.007314938632820977
794328.2347242822,0.9927991338600747,0.000868242953392941,0.008147742060078376,0.007316607541242229
630957.344480193,0.993217635698314,1.819214774787187e-05,0.008150547600468757,0.0073189994086601245
501187.2336272725,0.9936741642781874,-0.0006548815300575403,0.00815382642002175,0.007321850480620621
398107.17055349686,0.9941523582317867,-0.0011755568171663983,0.008157360303087067,0.007324946881330478
316227.7660168379,0.994637281438846,-0.0015685433459253747,0.008160980448645345,0.007328127113980108
251188.6431509582,0.9951172011982752,-0.00185798688807311,0.008164568528519182,0.0073312801909797415
199526.2314968879,0.9955841257645391,-0.002066427150742242,0.008168051088002974,0.007334338550876714
158489.3192461114,0.9960335022614355,-0.00221397499962167,0.008171390206746629,0.0073372682550014
125892.5411794166,0.9964634875593077,-0.0023178960254578,0.008174573305317477,0.007340058878533873
100000.0,0.9968740859096125,-0.002392605295882165,0.008177603892541577,0.0073427145635072966
79432.82347242821,0.9972663563965641,-0.0024500067229841728,0.008180494217010574,0.007345247046186675
63095.7344480193,0.9976418222989866,-0.002500057635928635,0.00818326023786812,0.007347671030238175
50118.72336272724,0.9980021208062195,-0.0025514126796820956,0.008185918799119764,0.007350001773880829
39810.71705534969,0.998348841946627,-0.0026120389136166655,0.008188486451135771,0.007352254306341797
31622.776601683792,0.9986834752940693,-0.002689770802622753,0.00819097928589512,0.00735444358156527
25118.864315095827,0.9990074094848967,-0.0027928273831517914,0.008193413413698336,0.007356585122645985
19952.623149688792,0.9993219642252076,-0.0029303237747175287,0.008195805988273632,0.007358696037197938
15848.93192461114,0.9996284481224538,-0.0031128000735155623,0.008198176807277253,0.007360796502270039
12589.254117941662,0.9999282326012032,-0.003352786470575341,0.008200550558397666,0.007362911936712174
10000.0,1.0002228248953566,-0.0036654312763223125,0.008202959856197655,0.007365076160106875
7943.282347242814,1.0005139220808525,-0.00406923719170688,0.008205449381726097,0.00736733595494715
6309.57344480193,1.000803440189378,-0.004586972337768154,0.00820808176960565,0.0073697577245896515
5011.8723362727205,1.0010935345294079,-0.005246836130969336,0.008210946449086388,0.007372437487664388
3981.0717055349687,1.001386651359645,-0.006083963769500871,0.008214173483373928,0.0073755163519031025
3162.2776601683795,1.0016856720627259,-0.007142348951066418,0.008217955631232565,0.007379204933790106
2511.8864315095802,1.0019942231833077,-0.008477255178224232,0.00822258347374009,0.007383822007287116
1995.2623149688789,1.002317221886786,-0.010158184112784277,0.008228500716777666,0.007389855189312671
1584.8931924611124,1.0026617162646407,-0.012272501405823498,0.00823639023151704,0.007398055289138468
1258.9254117941662,1.0030381072866779,-0.014929900744110249,0.00824730704197873,0.007409582099243653
1000.0,1.0034619575202133,-0.018267982627880232,0.008262883554300956,0.007426229059100322
794.3282347242813,1.0039568138866743,-0.02245926678988807,0.008285645649603365,0.007450767991407428
630.957344480193,1.0045587597612555,-0.027719898663889905,0.008319495340256278,0.007487472038273525
501.187233627272,1.0053237354573341,-0.034320165622431315,0.008370433756096094,0.007542891098943783
398.10717055349687,1.0063390897228743,-0.04259673637894217,0.008447609957726542,0.007626959782209753
316.227766016838,1.0077415034035127,-0.05296618310836866,0.008564768196888763,0.0077544912653192775
251.18864315095797,1.0097444724480622,-0.06593854307619969,0.008742089826967845,0.007947010068290381
199.5262314968879,1.0126799051193645,-0.08212794750418077,0.009008224806832952,0.008234647211742618
158.48931924611125,1.017059791301323,-0.10225397806971802,0.00940192536110921,0.008657431951044058
125.89254117941664,1.0236644565070079,-0.12712129235653563,0.009972150511904473,0.009264830658272253
100.0,1.033661201648298,-0.1575548091157452,0.010774975732056373,0.010112001230466468
79.43282347242804,1.0487457007770402,-0.1942530031274432,0.01186539843222921,0.011251156633574651
63.09573444801929,1.0712686776939475,-0.23750724249931537,0.013282389681538151,0.012716689422187535
50.11872336272725,1.1042509195491796,-0.286738720161562,0.015026522813450734,0.014503408117120559
39.81071705534969,1.1511046384797867,-0.3398684721411675,0.017032200743956987,0.01653956685645303
31.622776601683796,1.2148298323479025,-0.39271652992173406,0.019143049335027817,0.018662855741610074
25.118864315095767,1.2965999202412095,-0.43891108464988665,0.021109552366084364,0.020618372809778438
19.95262314968879,1.3941538381077856,-0.47093223307226856,0.022633165606045565,0.022103163921933802
15.848931924611108,1.5010681684739868,-0.4824492053813303,0.023462130238969117,0.022862912520288322
12.589254117941664,1.6079740686775836,-0.47096332529684765,0.023498014580104348,0.022799702605213013
10.0,1.7055108566376163,-0.438991220464026,0.02284115934152832,0.022018402510093165
7.943282347242805,1.78727250237029,-0.3928690003889994,0.021738460695737757,0.020774424113131608
6.30957344480193,1.851011334091559,-0.34010876206811796,0.020472941747784353,0.019362039588299722
5.011872336272715,1.8979037819203417,-0.28707044406035326,0.019268773321061503,0.018017151103976323
3.981071705534969,1.9309454642779023,-0.23792614956747724,0.01825275882066454,0.016876226330438317
3.1622776601683795,1.9535427998672468,-0.19475274162354647,0.01746491555673968,0.015985029525022832
2.5118864315095766,1.9687128885307845,-0.15813027033223098,0.01689020254079461,0.015329937128516529
1.9952623149688788,1.9788051956986095,-0.1277691590014036,0.01648912156757865,0.014869494924664158
1.584893192461111,1.9855153759163597,-0.10297192242349536,0.016217993013336165,0.01455626778150468
1.2589254117941662,1.9900108268279324,-0.0829138429630501,0.016038868720006764,0.014348154112772642
1.0,1.9930716927518466,-0.0667902437165186,0.015922533018103816,0.014212238933693788
0.7943282347242805,1.9952097337873504,-0.053881700895764856,0.01584803448250873,0.014124654238108004
0.6309573444801929,1.9967569717179705,-0.04357434925898087,0.015800995631986444,0.014068891245568392
0.5011872336272715,1.9979275026396102,-0.035358124202119194,0.015771819904014703,0.01403386983302821
0.3981071705534969,1.9988588640502107,-0.028815731851694736,0.015754211394955666,0.014012293295751887
0.31622776601683794,1.9996390606617744,-0.023608949818972543,0.01574408177348019,0.013999411889215404
0.2511886431509577,2.0003240593304774,-0.0194652963892821,0.01573879050898493,0.01399215399623187
0.1995262314968879,2.000949151516752,-0.01616619302502469,0.015736635493795646,0.013988539263115302
0.1584893192461111,2.001536397303827,-0.013536839259986432,0.01573651915050696,0.013987291715943668
0.12589254117941662,2.0020995179200485,-0.011437677409176304,0.01573773253258141,0.01398758844763463
0.1,2.002647066442162,-0.009757244031274143,0.015739816558662356,0.013988897570212863
0.07943282347242805,2.003184382586074,-0.008406219079757337,0.01574247256646315,0.013990873719930996
0.0630957344480193,2.0037146451789263,-0.007312534618730463,0.015745503778636573,0.013993290035145356
0.05011872336272714,2.0042392407694454,-0.00641747024313031,0.015748775849932967,0.013995992944638018
0.039810717055349686,2.0047576474413646,-0.005672710824359013,0.015752189257416165,0.013998871249437808
0.031622776601683784,2.005267053037544,-0.005038351190842595,0.015755659503410072,0.01400183456148583
0.02511886431509577,2.0057619548130985,-0.004481808279155447,0.01575910334386853,0.014004798632412843
0.019952623149688792,2.006234026701789,-0.003977553760038898,0.01576243093181769,0.014007676875448056
0.01584893192461111,2.006672598739468,-0.0035074637890126804,0.015765545062694866,0.014010378711886014
0.01258925411794166,2.00706607485735,-0.003061324710730042,0.015768348967508523,0.014012815751219947
0.01,2.0074043081828092,-0.0026367176294267215,0.015770761928043248,0.014014915009775874
