tau,gamma,sigma_gamma
1e-07,0.058272142321438736,0.14548916044532542
1.1097524964120721e-07,0.059218166581327836,0.14101749536447128
1.2315506032928263e-07,0.057350614325443416,0.13461035474956862
1.3667163564620074e-07,0.05278576280753633,0.12643717554782632
1.5167168884709241e-07,0.045782599256044776,0.11687053069879266
1.6831803533309585e-07,0.03673500201554525,0.10645928289739154
1.867913599020781e-07,0.026154543281407427,0.0958968048106033
2.0729217795953698e-07,0.014644479138745226,0.0859723433704202
2.300430119772917e-07,0.0028662392165408335,0.07748069618790299
2.5529080682395163e-07,-0.008499578460359203,0.07106103377254108
2.833096101839324e-07,-0.018795130820855377,0.06698196846715095
3.1440354715915e-07,-0.02742720826476308,0.06500014642060872
3.489101213406774e-07,-0.033905952064452904,0.06444682092180598
3.872038781812557e-07,-0.03787740304681364,0.0645066297812041
4.2970047043208437e-07,-0.03914724908392131,0.06448529233616564
4.768611697714474e-07,-0.03769375890079196,0.06394215485467566
5.291978735958437e-07,-0.0336687076440958,0.0627066220788588
5.872786613189477e-07,-0.027386047075811604,0.0608374585589848
6.517339604882421e-07,-0.01929906635250056,0.0585603173965617
7.232633896483533e-07,-0.009967737152393852,0.056194047971224306
8.026433522257174e-07,-1.875052895439211e-05,0.05406717788065371
8.907354638610439e-07,0.009898645237446324,0.0524316872413612
9.884959046625586e-07,0.019157564271364613,0.051395960394900506
1.096985797892384e-06,0.027195688131276263,0.05090594068700155
1.217382727739662e-06,0.033551557836696944,0.05078516821473462
1.3509935211980278e-06,0.03789230516023956,0.05081086076189904
1.499268432786047e-06,0.040030948770905184,0.050787726829746395
1.6638168860761274e-06,0.03993230115642987,0.050594113269895526
1.8464249428955464e-06,0.03770751066830513,0.05019590976490146
2.049074689815846e-06,0.033598206629974925,0.04963517287661336
2.2739657523579273e-06,0.02795203704880933,0.049002754342977746
2.523539170434766e-06,0.02119201550404881,0.04840365641719405
2.800503894183631e-06,0.013782475396169502,0.04792384007283469
3.107866187782014e-06,0.006194541404816789,0.04760714910650384
3.4489622604057595e-06,-0.0011261269106839222,0.04744848437348257
3.827494478516315e-06,-0.007786956124487432,0.04740359020184701
4.247571552536894e-06,-0.013469657913585564,0.04740949137090094
4.713753134116729e-06,-0.017943913424751656,0.047406620722551834
5.2310993080562585e-06,-0.02107318719735929,0.04735517389792428
5.805225516094895e-06,-0.02281302016262643,0.04724214601840644
6.44236350872137e-06,-0.02320276005315236,0.04707923523273425
7.149428986597577e-06,-0.02235214978586697,0.04689417486322149
7.934096665797492e-06,-0.020424479395398265,0.046719144011090265
8.804883581643465e-06,-0.01761810534549113,0.046580017526362524
9.771241535346501e-06,-0.014148063171692371,0.04648945496712596
1.0843659686896109e-05,-0.01022927302443577,0.046445294578135565
1.2033778407775906e-05,-0.006062502441551487,0.0464338345088891
1.3354515629298974e-05,-0.0018238523768552284,0.04643605867812612
1.48202070579886e-05,0.0023418829102901384,0.04643427038169625
1.6446761779946626e-05,0.006324023223221786,0.04641699900409041
1.8251834943190462e-05,0.010045354396556405,0.04638105361427983
2.0255019392306664e-05,0.013458662251849773,0.046330702404153545
2.2478058335487252e-05,0.016541260438501126,0.046274799769318996
2.4945081352303165e-05,0.019288413540877514,0.046223109537377946
2.7682866303920665e-05,0.02170656894442402,0.04618307136006484
3.072112998861759e-05,0.02380725723837429,0.0461579014107831
3.409285069746814e-05,0.025602413673752267,0.04614635578580285
3.783462617131933e-05,0.02710172303055458,0.046143912351549694
4.1987070844439056e-05,0.028312404997471674,0.046144730704843324
4.659525668664687e-05,0.029241642050038763,0.046143632949551754
5.170920242896755e-05,0.029901610947163704,0.04613749455041347
5.7384416483024044e-05,0.030316817719800326,0.0461257402846286
6.368249944718586e-05,0.030533163638068572,0.04610997389473559
7.067181273927492e-05,0.03062790134573845,0.046093024775153944
7.842822061337681e-05,0.030719398363359574,0.04607781384772586
8.703591361485166e-05,0.03097543799931657,0.04606641700429119
9.658832241158708e-05,0.03161868765378273,0.04605957210959783
0.00010718913192051276,0.032927983328562505,0.04605669323293712
0.00011895340673703195,0.035234242661907444,0.04605628817734206
0.0001320088400831418,0.03891014097577994,0.046056572141727245
0.00014649713983072864,0.044353162599684026,0.04605605110510939
0.0001625755666443795,0.051962249508527236,0.04605390321651468
0.00018041864093920718,0.062108965953342476,0.04605008224252344
0.00020022003718155845,0.07510481678750835,0.04604516697179688
0.0002221946860939524,0.09116702021018597,0.0460400523069339
0.0002465811075822604,0.11038555863849808,0.04603560670461057
0.0002736439997074672,0.13269463499852918,0.0460324059649974
0.00030367711180354605,0.15785168209018252,0.046030608491133176
0.00033700643292719284,0.18542677171259214,0.046029981558326154
0.0003739937302478798,0.2148046432507158,0.04603004048844609
0.0004150404757850477,0.24520065124184498,0.04603023650840298
0.00046059220411451084,0.27569078791212576,0.04603012753074618
0.0005111433483440171,0.30525467137692175,0.0460294846259873
0.0005672426068491978,0.33282912666495434,0.04602831599090187
0.0006294988990221888,0.35736885727209966,0.04602681791624298
0.0006985879746785249,0.3779098355662285,0.04602528178862003
0.0007752597488629464,0.39363053569515216,0.04602399201810368
0.000860346441668451,0.40390606282860375,0.04602314519068101
0.0009547716114208065,0.40835062383763443,0.046022807844528564
0.001059560179277617,0.4068446148078806,0.04602291617219395
0.0011758495540521582,0.3995438009674501,0.046023309508256414
0.0013049019780144017,0.3868695253739318,0.046023782993936536
0.001448118227674533,0.3694804661518134,0.04602414421338969
0.0016070528182616384,0.34822801674196313,0.04602426110024166
0.0017834308769319094,0.32409874093768565,0.0460240926285781
0.0019791668678535573,0.2981484246813011,0.0460236981584471
0.002196385372416547,0.2714329122156798,0.0460232239148554
0.002437444150122222,0.2449411195096971,0.04602286865974021
0.002704959730463137,0.21953535341411623,0.04602283338803317
0.0030018358135755923,0.19590336663826236,0.04602326436727205
0.003331294787934677,0.1745255218836661,0.04602420283628566
0.0036969127071950323,0.15565912878831512,0.04602555682943573
0.00410265810582719,0.13934057791387744,0.046027108922981445
0.004552935074866948,0.12540445470593653,0.046028566313602054
0.00505263106533568,0.11351749329165983,0.04602964740802184
0.005607169938205458,0.10322412722367602,0.04603018471348546
0.006222570836730231,0.09399958850519852,0.0460302123636871
0.006905513520162331,0.08530604475612336,0.0460300032566607
0.007663410868007463,0.07664716453826514,0.04603002978488947
0.008504489341802686,0.06761675213351026,0.04603084301162318
0.009437878277775391,0.057937661241187044,0.04603289444155961
0.010473708979594508,0.04748802937777441,0.046036351934689614
0.011623224686798541,0.03631290532413445,0.04604097711837606
0.01289890261253308,0.02462049667025923,0.04604612556467779
0.014314589375234785,0.012763465161739873,0.046050900228383006
0.015885651294280528,0.0012068652181582706,0.04605443843497719
0.01762914118095948,-0.009514621271563328,0.04605625744015592
0.01956398343517065,-0.018846625288979624,0.04605654310430541
0.021711179456945052,-0.026268049102540658,0.0460562588002155
0.02409403560239527,-0.03134255788825868,0.046056989286666954
0.026738416158399492,-0.033764130782955704,0.04606051281427707
0.029673024081888724,-0.033392565775656635,0.04606819666133988
0.032929712550971546,-0.03027555159131623,0.04608040229660235
0.036543830709572546,-0.02465495429434128,0.04609612915581386
0.040554607358408275,-0.016956252075914335,0.046113091409783126
0.04500557675700498,-0.007761495305253163,0.04612830396743182
0.0499450511585514,0.0022323469789569117,0.04613907946501939
0.05542664520663107,0.012266401273123506,0.04614415989589969
0.06150985788580504,0.021579849380728433,0.046144590335171785
0.06826071834272393,0.029471612642801404,0.04614394346346174
0.0757525025877192,0.03535819178787847,0.04614764973797883
0.08406652885618333,0.03882226718906168,0.0461614633599856
0.09329304026284696,0.03964737262759854,0.046189431720923296
0.10353218432956637,0.03783515606181709,0.04623202246807198
0.11489510001873086,0.03360333491225731,0.04628516559067539
0.1275051240713013,0.027364293447277532,0.04634079678692254
0.1414991297434576,0.01968617282336993,0.04638904826899163
0.15702901247293774,0.011240070275860603,0.046421646953918434
0.17426333860096507,0.002738398458404845,0.04643554153250375
0.19338917504552322,-0.005129606768079498,0.046435481115386736
0.21461411978584058,-0.01175891787389105,0.04643434294171058
0.23816855519761607,-0.016680314353607173,0.046450514953012896
0.2643081486974108,-0.019597556740606592,0.04650254793240707
0.29331662783900486,-0.020406666955935293,0.04660241266302181
0.32550885998350565,-0.01919574876656327,0.04674963313980614
0.36123426997094304,-0.016225855151688506,0.046928803382336085
0.40088063288984643,-0.011895420033113169,0.04711220549701868
0.4448782831127585,-0.00669249207705036,0.047267600886604935
0.4937047852839004,-0.0011402423081960933,0.047369398248521134
0.5478901179593945,0.0042581744823735335,0.0474099926079774
0.6080224261649427,0.009069408053477446,0.047407468301328234
0.67475440531107,0.01296911356989483,0.04740613754400727
0.748810385759003,0.015766666981122057,0.04746768748185981
0.8309941949353403,0.017413251960590514,0.04765335472585458
0.9221978823334341,0.01799313484468712,0.048001451575539096
1.0234114021054528,0.0176998749190318,0.048508257484790006
1.135733358343105,0.01680089446637112,0.04912103746352424
1.2603829296797273,0.015595065745799275,0.049748125877717264
1.3987131026472386,0.01436862756094115,0.05028447507432023
1.552225357427048,0.013354761752609079,0.05064579514162416
1.7225859653987874,0.012701557216175274,0.05080249376198639
1.9116440753857036,0.012451956785426432,0.050804747250129095
2.121451784910632,0.012537771463868808,0.05078987802905208
2.35428641432242,0.012788147414170226,0.05096279025499827
2.612675225563332,0.012951189042212263,0.05154377941527534
2.8994228538828812,0.012725970907098372,0.052691721733596694
3.2176417502507353,0.01180107279594722,0.05443182070571039
3.5707859649004625,0.009895155340856832,0.05662575225340203
3.9626886387014784,0.006795005417757238,0.05900122202760711
4.397603609302721,0.002386904403422818,0.06122485146311772
4.880251583654434,-0.00332196685371855,0.06298908391919243
5.415871378079476,-0.010194195610353063,0.06409406171835606
6.010276782070388,-0.01796564281388413,0.06451939185873153
6.669919663030129,-0.026261199502712884,0.06448390645900261
7.401959996915652,-0.03462099308353572,0.06447934749105903
8.214343584919439,-0.04253428884091193,0.0652369743169936
9.115888299750837,-0.04947772102380554,0.0675681838350517
10.11637979766207,-0.05495425757942485,0.07208033997538472
11.226677735108158,-0.058529446182483014,0.07892009199161462
12.458833642950081,-0.05986195987323839,0.08773437452236409
13.826221737646593,-0.0587261809485895,0.09783937372294639
15.343684089300131,-0.05502543549419414,0.10843150450426525
17.02769172225898,-0.04879541573326662,0.11873421637123652
18.896523396912116,-0.04019820667914331,0.12807811336445665
20.970464013232306,-0.029508086593502014,0.13594499258139975
23.27202478960412,-0.017090839202914765,0.14199811934635445
25.826187606826746,-0.0033786671888407227,0.1461087393795267
28.66067616948256,0.011157075204852873,0.14838159571798815
31.80625692794119,0.02603319076350985,0.14917760437440075
35.297073027306574,0.040780099264992486,0.1491259206577481
39.17101490809261,0.054963933959840006,0.14910776579547633
43.47013158125035,0.06820420805739502,0.15018310384283748
48.241087041653735,0.0801864556119476,0.1534336337312543
53.535666774107185,0.09066969981206441,0.15973615158610036
59.411339849650396,0.09948899260666622,0.1695526161351102
65.93188271333541,0.10655357884360228,0.18285034275931855
73.16807143427206,0.1118414533699088,0.19918607346557463
81.19844993184009,0.11539119935708264,0.2178789881174688
90.11018251665037,0.11729202787760507,0.2381746756568139
100.0,0.11767289634404854,0.2593531478073032
