freq,Zreal,Zimag,sigma_im
0.01,1.9890756906102955,-0.011432933036218174,9.355533290028584e-05
0.01258925411794166,1.9831691217050351,-0.010189753939513935,3.8504380682258255e-05
0.01584893192461111,1.9788871596675133,-0.006976668372189465,3.5027975737511596e-05
0.019952623149688792,1.9767249007204093,-0.002644147730450186,3.3990362407310126e-05
0.02511886431509577,1.9767957458373095,0.0018367100392708835,3.0368811472947232e-05
0.031622776601683784,1.9788107464055544,0.005561386262066037,2.795440975283947e-05
0.039810717055349686,1.9821527858184522,0.007869075476499177,2.7490971632626593e-05
0.05011872336272714,1.98603228876302,0.00846229056947223,2.7460057664352444e-05
0.0630957344480193,1.9896859125175705,0.007432048160978866,2.6965212143292838e-05
0.07943282347242805,1.9925623829057995,0.005176349576856865,2.6301785104543285e-05
0.1,1.994438319193824,0.0022325324465626295,2.5950753290093775e-05
0.12589254117941662,1.9954253734790217,-0.0009253237832815842,2.5906578561551985e-05
0.1584893192461111,1.9958651052308944,-0.004056518559753641,2.588314839674366e-05
0.1995262314968879,1.9961490474825305,-0.007231079660730444,2.5744280587269852e-05
0.2511886431509577,1.9965329956628017,-0.010785761941505712,2.5579446872647793e-05
0.31622776601683794,1.9970220993302075,-0.015177609224011235,2.5497573390598216e-05
0.3981071705534969,1.9973796233064638,-0.020800032119893785,2.5489159407310336e-05
0.5011872336272715,1.9972619988563511,-0.027851036074309832,2.548087237019825e-05
0.6309573444801929,1.9964230139006647,-0.03633209109786861,2.5440838807455624e-05
0.7943282347242805,1.9948849638233128,-0.046207390994474906,2.5395247160997503e-05
1.0,1.992966750244244,-0.05768095009627672,2.5373314809395975e-05
1.2589254117941662,1.991099004828545,-0.07147982472272929,2.5371326370648983e-05
1.584893192461111,1.9894367554459835,-0.08899602453155353,2.536864305874298e-05
1.9952623149688788,1.987375103271675,-0.11215924989766535,2.5356853903923948e-05
2.5118864315095766,1.9831463752728133,-0.14299042300869758,2.534378464680298e-05
3.1622776601683795,1.973694339486595,-0.18290189858755923,2.5337663954128065e-05
3.981071705534969,1.9549650325582444,-0.23192545986682234,2.5337169356542955e-05
5.011872336272715,1.9226332636567702,-0.2881190082489198,2.5336318619284537e-05
6.30957344480193,1.8731338899107257,-0.34739336078678207,2.5332821646573134e-05
7.943282347242805,1.8047385891632337,-0.40390335776588415,2.5329033618293195e-05
10.0,1.7183615895170226,-0.4509859575878181,2.5327306584999043e-05
12.589254117941664,1.6178205236254501,-0.48245200220080875,2.532719237824388e-05
15.848931924611108,1.5094165425518284,-0.4939079617638633,2.5326946393899874e-05
19.95262314968879,1.4008916032186165,-0.4837479411075911,2.5325929037145478e-05
25.118864315095767,1.3000083679831327,-0.45353300327637314,2.5324833918816125e-05
31.622776601683796,1.213116260213967,-0.40764406736744796,2.532434768215408e-05
39.81071705534969,1.144074671356593,-0.3523028175996412,2.5324355300948564e-05
50.11872336272725,1.0937973958250453,-0.29423415104590234,2.532436210972433e-05
63.09573444801929,1.0604967283464424,-0.23933535139991502,2.5324143229366047e-05
79.43282347242804,1.0405034714294064,-0.19169370581605882,2.5323849498881668e-05
100.0,1.0293864691188879,-0.15316799707986917,2.5323719057779304e-05
125.89254117941664,1.0230386418635014,-0.12356694158000892,2.5323849730307657e-05
158.48931924611125,1.018447071133675,-0.10128227650364252,2.5324143369920282e-05
199.5262314968879,1.0139965820706707,-0.0841220296348908,2.532436246660552e-05
251.18864315095797,1.0093182499910271,-0.07007055951327601,2.5324356405620474e-05
316.227766016838,1.0048298348900375,-0.057771696996141486,2.532434810070816e-05
398.10717055349687,1.0011829639634306,-0.04665550041380584,2.5324835329132434e-05
501.187233627272,0.998818649024368,-0.03675893200202296,2.5325929357611354e-05
630.957344480193,0.9977547203824012,-0.028381611155381847,2.5326947243942133e-05
794.3282347242813,0.997622493931332,-0.02174459348118063,2.532719380743398e-05
1000.0,0.9978767271055852,-0.016783580954133015,2.5327307536848753e-05
1258.9254117941662,0.9980534378797804,-0.01313095855015689,2.5329034709031806e-05
1584.8931924611124,0.9979552617975377,-0.010257444274756722,2.5332822675139255e-05
1995.2623149688789,0.9976934604498447,-0.007685256556079878,2.5336320086388753e-05
2511.8864315095802,0.9975847471095857,-0.005168505903732523,2.533717036357075e-05
3162.2776601683795,0.9979613623610387,-0.0027630506812741373,2.5337664535329818e-05
3981.0717055349687,0.9989828695967664,-0.0007618169833278898,2.5343784966158633e-05
5011.8723362727205,1.000530216911423,0.0004709286081450159,2.535685453225467e-05
6309.57344480193,1.0022237912027006,0.0006937717938271248,2.5368643577938776e-05
7943.282347242814,1.0035551044526436,-6.945641622735366e-05,2.5371326167755726e-05
10000.0,1.0040771784787703,-0.0014954068610180116,2.537331532420639e-05
12589.254117941662,1.0035778203921872,-0.0030472057825079446,2.539524719563646e-05
15848.93192461114,1.0021690132598138,-0.004146372625612571,2.5440838768042706e-05
19952.623149688792,1.0002593795700676,-0.004364899999551142,2.5480872652694497e-05
25118.864315095827,0.9984211920171131,-0.003566588333111298,2.5489159537483985e-05
31622.776601683792,0.9972016911305309,-0.0019470454492420686,2.5497573091615156e-05
39810.71705534969,0.9969467890281467,3.870799842076167e-05,2.5579447151036216e-05
50118.72336272724,0.997697972811085,0.0018323322300517475,2.574428034368692e-05
63095.7344480193,0.9991944614469584,0.002954753729742521,2.5883148450034366e-05
79432.82347242821,1.0009741417523037,0.003151675717022684,2.590657844175892e-05
100000.0,1.0025330624133217,0.002455822397870122,2.595075342193276e-05
125892.5411794166,1.0034860907191776,0.001151060700630424,2.630178518914228e-05
158489.3192461114,1.0036755857405957,-0.0003414789630316051,2.6965211872620465e-05
199526.2314968879,1.0031972720310967,-0.0016108167582817856,2.7460057988315523e-05
251188.6431509582,1.002343327117462,-0.0023855873763949376,2.749097242721321e-05
316227.7660168379,1.0014903400235011,-0.0026053840875839285,2.7954410734221113e-05
398107.17055349686,1.0009749800830439,-0.0024173264981559583,3.0368811937464546e-05
501187.2336272725,1.0009991432506649,-0.0021078540696937154,3.399036270146372e-05
630957.344480193,1.001591322052583,-0.001998435527172049,3.5027976034551767e-05
794328.2347242822,1.0026286478186106,-0.002342176582709854,3.8504381110970876e-05
1000000.0,1.0039026197389558,-0.0032518678859414507,9.355533359645118e-05
