tau,gamma,sigma_gamma
1e-07,0.03688155744669075,0.08648122285989965
1.1097524964120721e-07,0.032187175383796784,0.07768648679857029
1.2315506032928263e-07,0.027007584468265122,0.06876724656842292
1.3667163564620074e-07,0.0215515636893997,0.059982003008509706
1.5167168884709241e-07,0.016026704826799687,0.051591921233658446
1.6831803533309585e-07,0.010632957433244883,0.043860280557673506
1.867913599020781e-07,0.005556320402547499,0.03705119176172606
2.0729217795953698e-07,0.0009629094230376722,0.03141874817003018
2.300430119772917e-07,-0.0030063735723615537,0.02716788465196165
2.5529080682395163e-07,-0.0062403548745351145,0.024370914608507505
2.833096101839324e-07,-0.008661094967692406,0.022876697235736775
3.1440354715915e-07,-0.01022622360233072,0.022317728949395238
3.489101213406774e-07,-0.010929980728178634,0.022247333266148445
3.872038781812557e-07,-0.0108028854940585,0.02228716931825901
4.2970047043208437e-07,-0.009910007218991268,0.022188748699688784
4.768611697714474e-07,-0.008347867448264878,0.021825630752454687
5.291978735958437e-07,-0.006240059213268978,0.021163299022114525
5.872786613189477e-07,-0.0037317257551876537,0.020230776273491763
6.517339604882421e-07,-0.0009830940758774886,0.019099203400431353
7.232633896483533e-07,0.0018376942214217706,0.01786578134548506
8.026433522257174e-07,0.004562172886835469,0.01664003579801695
8.907354638610439e-07,0.007029251484709675,0.015529342007353198
9.884959046625586e-07,0.009092698995118553,0.014621883510648285
1.096985797892384e-06,0.010628080520746153,0.013968739955535542
1.217382727739662e-06,0.011538828293623737,0.013571926185180532
1.3509935211980278e-06,0.01176115443740855,0.013386628371881516
1.499268432786047e-06,0.011267553329162183,0.013338379053731307
1.6638168860761274e-06,0.010068695225982083,0.01334624825465303
1.8464249428955464e-06,0.00821357763584274,0.013341486728888576
2.049074689815846e-06,0.005787875408486798,0.013277284760215256
2.2739657523579273e-06,0.0029105102803441696,0.013131034552083315
2.523539170434766e-06,-0.00027145709964315756,0.012902122958516686
2.800503894183631e-06,-0.0035894253642254625,0.012607466408596618
3.107866187782014e-06,-0.0068610827233897,0.012275932085578941
3.4489622604057595e-06,-0.009899136137846654,0.011941988550573686
3.827494478516315e-06,-0.012520556750814649,0.011639113931076198
4.247571552536894e-06,-0.014555916374774824,0.011393331470909441
4.713753134116729e-06,-0.015858369340776335,0.011218472765544376
5.2310993080562585e-06,-0.016311832668179704,0.0111142543541388
5.805225516094895e-06,-0.01583793751774465,0.011067825548692962
6.44236350872137e-06,-0.014401365981711933,0.011058208060870446
7.149428986597577e-06,-0.012013248543780719,0.011061880812143605
7.934096665797492e-06,-0.008732376925081553,0.011057838928924488
8.804883581643465e-06,-0.004664081643568352,0.01103107228134158
9.771241535346501e-06,4.327064812059689e-05,0.010974203917602964
1.0843659686896109e-05,0.005204092499525359,0.01088755889081297
1.2033778407775906e-05,0.010603522135625099,0.010777899157863915
1.3354515629298974e-05,0.01600720948908929,0.010656372427917924
1.48202070579886e-05,0.021172549496213833,0.010535948083236431
1.6446761779946626e-05,0.02586088441580614,0.010428691479085905
1.8251834943190462e-05,0.02985013022384919,0.010343512635634239
2.0255019392306664e-05,0.03294723909880304,0.010284623238556405
2.2478058335487252e-05,0.03499989320334862,0.010251147872316391
2.4945081352303165e-05,0.035906836738377024,0.01023784912514635
2.7682866303920665e-05,0.03562629365387693,0.010236703646588047
3.072112998861759e-05,0.03418198705821851,0.010238856080425497
3.409285069746814e-05,0.03166637065851319,0.010236385602444843
3.783462617131933e-05,0.028240799083505408,0.01022373242490327
4.1987070844439056e-05,0.024132497896516725,0.010198332771334815
4.659525668664687e-05,0.01962833932338981,0.010160782720845325
5.170920242896755e-05,0.015065580174223214,0.010114243296420803
5.7384416483024044e-05,0.010819866346992058,0.01006360551105162
6.368249944718586e-05,0.00729094700591304,0.010014316739178013
7.067181273927492e-05,0.004886663695970128,0.009971312828233209
7.842822061337681e-05,0.004005879025271497,0.00993806207197465
8.703591361485166e-05,0.00502108052364747,0.009916024002262321
9.658832241158708e-05,0.008261433717962063,0.009904572409734474
0.00010718913192051276,0.013997061339750871,0.009901314398879289
0.00011895340673703195,0.02242529200066201,0.009902772540472565
0.0001320088400831418,0.03365955199546988,0.00990509865286541
0.00014649713983072864,0.04772147074163513,0.009904937024590789
0.0001625755666443795,0.06453663756769856,0.009899925961813986
0.00018041864093920718,0.08393429107525208,0.009889050025684357
0.00020022003718155845,0.10565104877173326,0.009872640602335447
0.0002221946860939524,0.12933860223176907,0.009852229164380177
0.0002465811075822604,0.15457512022533137,0.009830100187853647
0.0002736439997074672,0.18087992768710137,0.009808750524671518
0.00030367711180354605,0.20773087086399755,0.009790482575295648
0.00033700643292719284,0.23458364604687176,0.00977691901993991
0.0003739937302478798,0.26089226812155175,0.009768822397406028
0.0004150404757850477,0.2861297908362985,0.009765927291033014
0.00046059220411451084,0.30980836705396086,0.009767185642465514
0.0005111433483440171,0.33149775610672805,0.009770941857026212
0.0005672426068491978,0.3508414461559255,0.009775328195758586
0.0006294988990221888,0.3675696601566756,0.00977858424103936
0.0006985879746785249,0.3815086500194411,0.009779371248972588
0.0007752597488629464,0.3925858488749441,0.009776979077334196
0.000860346441668451,0.40083063831065147,0.009771395679067764
0.0009547716114208065,0.4063706872932471,0.009763238240665302
0.001059560179277617,0.40942402281848445,0.009753680094478873
0.0011758495540521582,0.41028718925599605,0.009744180612947923
0.0013049019780144017,0.40932003462728517,0.009736207073547635
0.001448118227674533,0.40692781864686367,0.00973101399892642
0.0016070528182616384,0.4035414618725497,0.009729429015352252
0.0017834308769319094,0.3995968414879485,0.009731734454416248
0.0019791668678535573,0.39551408296065915,0.009737510577627128
0.002196385372416547,0.39167779585844187,0.009745879058078761
0.002437444150122222,0.3884191564894195,0.009755503288790254
0.002704959730463137,0.386000651963343,0.009764894939253648
0.0030018358135755923,0.3846041740025328,0.009772639359940622
0.003331294787934677,0.38432299253145175,0.009777665339199833
0.0036969127071950323,0.3851579563913674,0.009779441282732476
0.00410265810582719,0.38701807034601643,0.00977812477478795
0.004552935074866948,0.389725393420008,0.00977453476455909
0.00505263106533568,0.39302400341267685,0.00977013116262413
0.005607169938205458,0.39659258565308164,0.00976669658005664
0.006222570836730231,0.40006003961917713,0.009766085397034118
0.006905513520162331,0.40302336262089966,0.009769896944561788
0.007663410868007463,0.40506697141995573,0.009779036330354972
0.008504489341802686,0.4057825648851576,0.009793544549625666
0.009437878277775391,0.40478861573819813,0.009812539912633885
0.010473708979594508,0.40174860741728935,0.009834227254613808
0.011623224686798541,0.39638720110133363,0.009856232143682909
0.01289890261253308,0.38850362412847517,0.0098760472790981
0.014314589375234785,0.37798170877431403,0.009891510034368632
0.015885651294280528,0.3647961725563391,0.009901286602299497
0.01762914118095948,0.3490149096254527,0.009905282243728122
0.01956398343517065,0.33079724877757144,0.00990475660918045
0.021711179456945052,0.3103883179431932,0.009902321786622604
0.02409403560239527,0.2881098291397848,0.009901453453871698
0.026738416158399492,0.26434775353436635,0.009905998005454877
0.029673024081888724,0.23953748666224328,0.009919269259445553
0.032929712550971546,0.21414720322889025,0.009943411440552967
0.036543830709572546,0.18866016538981967,0.009978656068018678
0.040554607358408275,0.16355677581407235,0.010023151624659585
0.04500557675700498,0.13929715685833344,0.010073094565610856
0.0499450511585514,0.11630499131410943,0.010123391253401623
0.05542664520663107,0.09495328174671158,0.010168581482697642
0.06150985788580504,0.07555257903709389,0.01020404133066872
0.06826071834272393,0.05834210234479542,0.010227015705637834
0.0757525025877192,0.04348402915229599,0.010237488387092666
0.08406652885618333,0.031061082600444934,0.010238593617690294
0.09329304026284696,0.021077391456856276,0.010236419498055961
0.10353218432956637,0.013462453030911092,0.010239143033480006
0.11489510001873086,0.008077897684415802,0.010255645511630577
0.1275051240713013,0.004726641120441855,0.010293581679100255
0.1414991297434576,0.0031639218582313333,0.010357443758702334
0.15702901247293774,0.0031096595114377124,0.01044720611007231
0.17426333860096507,0.004261536453100234,0.010557711664130756
0.19338917504552322,0.00630820149228839,0.010679314473983764
0.21461411978584058,0.008942018379570982,0.010799586876790206
0.23816855519761607,0.011870831388705483,0.010905717992409351
0.2643081486974108,0.014828292258698639,0.010987164249526404
0.29331662783900486,0.01758238176478244,0.01103822412568067
0.32550885998350565,0.019941861228858215,0.011059973559970751
0.36123426997094304,0.021760497984701033,0.01106123138943772
0.40088063288984643,0.022939019158457086,0.011058299013841512
0.4448782831127585,0.02342485457506882,0.011072981745846961
0.4937047852839004,0.023209827371601932,0.011128751456689779
0.5478901179593945,0.022326035671881073,0.011245472134510808
0.6080224261649427,0.020840237201696254,0.011433929384651613
0.67475440531107,0.018847098748665303,0.011691813767977732
0.748810385759003,0.016461701967728004,0.012002741716419175
0.8309941949353403,0.013811707030981779,0.01233889260413493
0.9221978823334341,0.01102956539148181,0.012666097557412942
1.0234114021054528,0.00824514519888453,0.012950419539497141
1.135733358343105,0.005579089456887232,0.013164778011738406
1.2603829296797273,0.003137171159096397,0.013295090396071236
1.3987131026472386,0.0010058446348466532,0.013345808355292704
1.552225357427048,-0.0007508779326599324,0.01334394097319235
1.7225859653987874,-0.0020931678501483475,0.013340754195405206
1.9116440753857036,-0.0030057521797743902,0.01340828132232062
2.121451784910632,-0.0034969949108472065,0.013627883651480578
2.35428641432242,-0.0035968218533071195,0.014070273060179583
2.612675225563332,-0.0033536709587451696,0.014772462586719794
2.8994228538828812,-0.002830684565424235,0.01572295944852996
3.2176417502507353,-0.0021013825228237692,0.01686257587680916
3.5707859649004625,-0.001245064445583921,0.018098167634605117
3.9626886387014784,-0.0003421862727464031,0.019320741546806082
4.397603609302721,0.0005300583201233167,0.02042203412239372
4.880251583654434,0.0013017457584965086,0.021308617471042103
5.415871378079476,0.0019136466274858321,0.02191587460559634
6.010276782070388,0.002319931745546455,0.022224772190432025
6.669919663030129,0.002490068835754755,0.022284592243091098
7.401959996915652,0.0024098624496673438,0.022242404903815367
8.214343584919439,0.002081633389934723,0.022371646591548625
9.115888299750837,0.0015235745963764202,0.02307089131111046
10.11637979766207,0.000768356894354838,0.024785001654359456
11.226677735108158,-0.00013891150831568666,0.027848694202737185
12.458833642950081,-0.001143244130162202,0.03236766039731121
13.826221737646593,-0.0021827100562177293,0.03823702947012043
15.343684089300131,-0.0031915900458443502,0.045237723243134756
17.02769172225898,-0.004103601353392605,0.05311198730391174
18.896523396912116,-0.0048550436886785064,0.0615955195844506
20.970464013232306,-0.0053877309668450835,0.0704254323600263
23.27202478960412,-0.005651590752336233,0.07934097012020434
25.826187606826746,-0.005606834999525745,0.08808434002856709
28.66067616948256,-0.005225629787616981,0.09640386734457465
31.80625692794119,-0.004493217509462966,0.10405983965941076
35.297073027306574,-0.003408471020321713,0.11083317593394618
39.17101490809261,-0.0019838842530361944,0.11653719245003627
43.47013158125035,-0.0002450269377050063,0.12103310075650694
48.241087041653735,0.0017704886739693393,0.12425044714995946
53.535666774107185,0.0040144642424877475,0.12621417177504954
59.411339849650396,0.006429917396616247,0.12708020063734904
65.93188271333541,0.008953142785287582,0.12718036231853144
73.16807143427206,0.011515941235245464,0.12707259437565707
81.19844993184009,0.014047925304339515,0.12757997949936592
90.11018251665037,0.016478812853335967,0.12978079219387845
100.0,0.018740626596624566,0.13489691827693504
