tau,gamma,sigma_gamma
1e-07,0.0026673045541372176,0.027723851249161085
1.1097524964120721e-07,0.0036088214654341755,0.02399269187573757
1.2315506032928263e-07,0.004152295710355247,0.02314860274059022
1.3667163564620074e-07,0.004278015376840472,0.023346305253818637
1.5167168884709241e-07,0.00401186304412704,0.02314593507783471
1.6831803533309585e-07,0.003423254878967441,0.021945914195192408
1.867913599020781e-07,0.0026176929250141256,0.01973623892046181
2.0729217795953698e-07,0.0017244594737348962,0.016849580366398977
2.300430119772917e-07,0.0008807052621051525,0.013815844075894049
2.5529080682395163e-07,0.00021381115902840975,0.011259955451884438
2.833096101839324e-07,-0.00017567280168861998,0.009708236503431604
3.1440354715915e-07,-0.00022807881366304628,0.009212185322779128
3.489101213406774e-07,6.654409747852696e-05,0.00925418998916944
3.872038781812557e-07,0.0006664330091723514,0.009246095631432102
4.2970047043208437e-07,0.0014836744282575864,0.008892071613484407
4.768611697714474e-07,0.0023969495268545415,0.008185277908383512
5.291978735958437e-07,0.003269933647970902,0.007307658570209221
5.872786613189477e-07,0.003972808482885171,0.006525770262454147
6.517339604882421e-07,0.004403648995406684,0.006055747498405885
7.232633896483533e-07,0.004506218508069537,0.005918449925521686
8.026433522257174e-07,0.004281031683476044,0.005942425295059425
8.907354638610439e-07,0.0037874277875431517,0.005925927777605279
9.884959046625586e-07,0.0031357403660337013,0.0057652368778893445
1.096985797892384e-06,0.002470267787003877,0.005474760217412297
1.217382727739662e-06,0.0019453869124674839,0.005149394267438082
1.3509935211980278e-06,0.001698523726389567,0.004901188749542295
1.499268432786047e-06,0.0018245319094347678,0.004787335121843545
1.6638168860761274e-06,0.0023561330786208146,0.0047766354208674125
1.8464249428955464e-06,0.0032543529755884038,0.004786637167206905
2.049074689815846e-06,0.004411398884414552,0.0047485551104852405
2.2739657523579273e-06,0.005666363521370954,0.004643939863000544
2.523539170434766e-06,0.006831832538445326,0.0045029132514898765
2.800503894183631e-06,0.007727317293863223,0.004376595529761758
3.107866187782014e-06,0.00821384335564801,0.004304055113940545
3.4489622604057595e-06,0.008223345212144295,0.0042869745409151025
3.827494478516315e-06,0.0077769593052394725,0.004292590287010863
4.247571552536894e-06,0.0069878913470518,0.004284909962876642
4.713753134116729e-06,0.006047067751673296,0.004245098981287631
5.2310993080562585e-06,0.005192875146995846,0.0041817553449477836
5.805225516094895e-06,0.004669413405515854,0.0041169632213028185
6.44236350872137e-06,0.004680247645893587,0.004073709043321309
7.149428986597577e-06,0.0053461053889662935,0.004058457634553564
7.934096665797492e-06,0.006674947330125747,0.0040597382654006696
8.804883581643465e-06,0.008551211532278558,0.004059949778057673
9.771241535346501e-06,0.01074795471328116,0.0040450433787533775
1.0843659686896109e-05,0.012961547197861023,0.0040154936673751545
1.2033778407775906e-05,0.014864209754222202,0.003982292320556138
1.3354515629298974e-05,0.01616582347356399,0.003957113499374604
1.48202070579886e-05,0.016673888123747815,0.0039457620457304275
1.6446761779946626e-05,0.01633986291952283,0.0039455548000911006
1.8251834943190462e-05,0.015281696907351261,0.003946516775055264
2.0255019392306664e-05,0.013776044294473877,0.003940863785493397
2.2478058335487252e-05,0.01221894460780959,0.003927576121637728
2.4945081352303165e-05,0.011059752472903028,0.003910550828279746
2.7682866303920665e-05,0.0107187295487563,0.0038961626377983557
3.072112998861759e-05,0.011502835585901039,0.0038886172686713335
3.409285069746814e-05,0.013535937102815865,0.0038874839619648825
3.783462617131933e-05,0.01671833860579852,0.0038881249006460492
4.1987070844439056e-05,0.020726210791508493,0.0038861991556788087
4.659525668664687e-05,0.02505470486704553,0.0038805322450180322
5.170920242896755e-05,0.029100393575618,0.0038715407047714796
5.7384416483024044e-05,0.03227062495790278,0.0038636197460534
6.368249944718586e-05,0.03410098831673736,0.0038587965498043304
7.067181273927492e-05,0.03435876848055841,0.0038571615967614957
7.842822061337681e-05,0.03311093340037985,0.003857639133977883
8.703591361485166e-05,0.030740100379603064,0.0038569290922829194
9.658832241158708e-05,0.027900497775533495,0.0038549893839214065
0.00010718913192051276,0.025416857327670073,0.003850086876853028
0.00011895340673703195,0.024140536471605856,0.003845869581190625
0.0001320088400831418,0.024786817569633968,0.0038428259895161203
0.00014649713983072864,0.027783235626657188,0.003842310081760183
0.0001625755666443795,0.03315945800056852,0.0038424384189221284
0.00018041864093920718,0.040504067682377354,0.0038423012115613698
0.00020022003718155845,0.04900304569855507,0.0038408717330829017
0.0002221946860939524,0.05756034923228981,0.0038388702846833766
0.0002465811075822604,0.06498516088754513,0.0038363958002520103
0.0002736439997074672,0.07021605442514556,0.0038348324223648964
0.00030367711180354605,0.07254237217864556,0.003833987865068329
0.00033700643292719284,0.07177984859225717,0.0038345334945872485
0.0003739937302478798,0.06836217844767134,0.0038346795074143637
0.0004150404757850477,0.06332265107715784,0.0038339804715974792
0.00046059220411451084,0.05815849431388642,0.0038328164867144983
0.0005111433483440171,0.054592231544461356,0.0038316438396053146
0.0005672426068491978,0.05426533548364887,0.0038312805320513525
0.0006294988990221888,0.05841574436266228,0.0038304044524718906
0.0006985879746785249,0.06759890820467263,0.0038306047334800575
0.0007752597488629464,0.08150971022644171,0.0038302868511308286
0.000860346441668451,0.09894937283615945,0.003830763208430345
0.0009547716114208065,0.11795881038869993,0.00383065539963722
0.001059560179277617,0.1361111981909744,0.003830418188071776
0.0011758495540521582,0.15092654136947203,0.0038303455026759553
0.0013049019780144017,0.1603451148810109,0.003829452982516072
0.001448118227674533,0.16317984668967256,0.0038299411100769297
0.0016070528182616384,0.15946379769025043,0.003830194997860166
0.0017834308769319094,0.1506195757376645,0.0038302981449758688
0.0019791668678535573,0.13940202897970266,0.0038301978578639544
0.002196385372416547,0.1296005961605715,0.0038302533378539905
0.002437444150122222,0.12552785844377468,0.00383099223191419
0.002704959730463137,0.13135949327170238,0.0038311686321657636
0.0030018358135755923,0.15042118500434754,0.0038316720736599635
0.003331294787934677,0.1845343569823399,0.0038316394531767725
0.0036969127071950323,0.233531222908141,0.003832035705766471
0.00410265810582719,0.29502984471446325,0.0038319613879826747
0.004552935074866948,0.36452397758080224,0.0038325274082690285
0.00505263106533568,0.43579569132589313,0.0038331169330460524
0.005607169938205458,0.5016083549951418,0.0038345818619439976
0.006222570836730231,0.55459172883252,0.003835870122176221
0.006905513520162331,0.5881973162429404,0.0038355594954005002
0.007663410868007463,0.5975866746466636,0.00383542615828491
0.008504489341802686,0.5803210980438962,0.0038360822092883985
0.009437878277775391,0.5367475593234303,0.00383714671701709
0.010473708979594508,0.47001919409922266,0.003838827557667338
0.011623224686798541,0.38574223392424756,0.003841566830472481
0.01289890261253308,0.29129671137229707,0.0038437379544153548
0.014314589375234785,0.1949266622682444,0.0038448541759758957
0.015885651294280528,0.10472925042768111,0.0038446486535237408
0.01762914118095948,0.027685942928201257,0.003843879570746863
0.01956398343517065,-0.031129456167946046,0.003845647151475847
0.021711179456945052,-0.06905988566859378,0.0038491641407952964
0.02409403560239527,-0.08602957611560669,0.0038533147643833587
0.026738416158399492,-0.08435510609183439,0.00385771080697001
0.029673024081888724,-0.06824648993051596,0.0038597665336788825
0.032929712550971546,-0.043085842772143224,0.00385980515298798
0.036543830709572546,-0.01460006055924623,0.003859498170139939
0.040554607358408275,0.011946299020564766,0.0038621133914903635
0.04500557675700498,0.03242191782305781,0.0038669308889870795
0.0499450511585514,0.04427498442578326,0.0038750487260825897
0.05542664520663107,0.0467062342643203,0.0038836051350781826
0.06150985788580504,0.04056524932514094,0.003888650822467367
0.06826071834272393,0.028009351685227557,0.0038895972539769053
0.0757525025877192,0.011998297375839684,0.0038890003130097476
0.08406652885618333,-0.004282041534452219,0.0038909650474689508
0.09329304026284696,-0.01797008669927891,0.0039000109314560705
0.10353218432956637,-0.02696820228300112,0.003915368760413369
0.11489510001873086,-0.030211566982188742,0.00393145008312529
0.1275051240713013,-0.027738913927464637,0.003944699668402549
0.1414991297434576,-0.0205723468418455,0.003947816929920703
0.15702901247293774,-0.010444072856898856,0.003946808235490011
0.17426333860096507,0.0005701819443402201,0.0039486902462910044
0.19338917504552322,0.010441067186434339,0.003962317048300385
0.21461411978584058,0.01753105244836206,0.003990117083680149
0.23816855519761607,0.020841039149217977,0.004023337631583138
0.2643081486974108,0.02012513918066361,0.0040505783492828925
0.29331662783900486,0.015865763362171492,0.0040629409313359035
0.32550885998350565,0.009125522632075445,0.004061262677754872
0.36123426997094304,0.0013119646473569446,0.004061110069659869
0.40088063288984643,-0.0060970613894824055,0.00408109402853643
0.4448782831127585,-0.011816957077144252,0.004129115396931527
0.4937047852839004,-0.014964533871875574,0.004196174192842696
0.5478901179593945,-0.015179641075093286,0.004256898550454971
0.6080224261649427,-0.012646498948697626,0.0042898131127354425
0.67475440531107,-0.008019240485936052,0.0042934828985461
0.748810385759003,-0.0022721442499005207,0.004289091829771976
0.8309941949353403,0.0034937922934545895,0.004314173941422563
0.9221978823334341,0.008251424024706466,0.004398247183522876
1.0234114021054528,0.011220386861765519,0.004530929564820972
1.135733358343105,0.011985065593108857,0.004668957673772433
1.2603829296797273,0.010541742830241674,0.004762112900636999
1.3987131026472386,0.007272252168519344,0.0047873624036389095
1.552225357427048,0.0028540005607169405,0.004775395038411518
1.7225859653987874,-0.0018739149026316682,0.004799625266453486
1.9116440753857036,-0.0060630023979513226,0.004938944727535175
2.121451784910632,-0.008999513675121307,0.005208277942852431
2.35428641432242,-0.010217238423990693,0.005536038057423278
2.612675225563332,-0.00956265971223047,0.005807505044244673
2.8994228538828812,-0.007205138446465753,0.005938820947649322
3.2176417502507353,-0.0035941908701602188,0.005936552781411751
3.5707859649004625,0.0006258076515450739,0.0059261054688827
3.9626886387014784,0.004727226086458813,0.006116229424803427
4.397603609302721,0.008017962702979275,0.006652813904927063
4.880251583654434,0.009948650587148222,0.007472754736525766
5.415871378079476,0.010192752049874798,0.008337652785692514
6.010276782070388,0.008689322996417559,0.00898823964270704
6.669919663030129,0.005644603510290835,0.009269858494133035
7.401959996915652,0.0014949525825613819,0.00923629759935777
8.214343584919439,-0.0031609626673230196,0.009244130823160862
9.115888299750837,-0.007649090627808164,0.009909873754112527
10.11637979766207,-0.011312715535041207,0.011671942997041171
11.226677735108158,-0.013598034635776912,0.014363887814538649
12.458833642950081,-0.014121801759415575,0.01741622955572546
13.826221737646593,-0.012713658705081343,0.02021244233242834
15.343684089300131,-0.009429820224283958,0.022251509594120773
17.02769172225898,-0.004538816200863494,0.02325098215115441
18.896523396912116,0.0015165276626021296,0.023308756042740884
20.970464013232306,0.00817417109277585,0.023170335363569744
23.27202478960412,0.014816954474554223,0.02442149097000079
25.826187606826746,0.020837500429479405,0.028831789312837964
28.66067616948256,0.025696597786406983,0.03692813505596326
31.80625692794119,0.028969406725366298,0.04792896773707271
35.297073027306574,0.030375938891779697,0.0606865751155046
39.17101490809261,0.029794499009256015,0.07411800849611375
43.47013158125035,0.027258829848392452,0.0872600447811517
48.241087041653735,0.022941357470358525,0.09927565084236699
53.535666774107185,0.017126054991535966,0.10948206070864021
59.411339849650396,0.010174987976824923,0.11739634199596902
65.93188271333541,0.0024926098036530675,0.12278983577043184
73.16807143427206,-0.005508562601846734,0.12574677911478976
81.19844993184009,-0.013438011286126539,0.12672321892200403
90.11018251665037,-0.020951053007365772,0.12659384876780563
100.0,-0.027765431810991004,0.1266489813035787
