tau,gamma,sigma_gamma
1e-07,0.037619529538880536,0.2079483399536722
1.1097524964120721e-07,0.030419967316057395,0.20763511901774484
1.2315506032928263e-07,0.02077805250138587,0.2077539055302914
1.3667163564620074e-07,0.008683922370157582,0.2075640542333403
1.5167168884709241e-07,-0.005660971906932821,0.2064048327407341
1.6831803533309585e-07,-0.021801515543559802,0.2038362413202789
1.867913599020781e-07,-0.03900725136935945,0.19973296582390823
2.0729217795953698e-07,-0.05628087177328078,0.19431758767632237
2.300430119772917e-07,-0.07240388784245555,0.1881246600668051
2.5529080682395163e-07,-0.08602200743976729,0.1818910521507336
2.833096101839324e-07,-0.09576673387593604,0.17637995860514802
3.1440354715915e-07,-0.10040299606392722,0.17217431045540693
3.489101213406774e-07,-0.09898641812245268,0.1695111853086572
3.872038781812557e-07,-0.09100941835622312,0.16823574493085
4.2970047043208437e-07,-0.07651382878918289,0.16790023095367743
4.768611697714474e-07,-0.056149862082111035,0.16795230786118467
5.291978735958437e-07,-0.031167104313613248,0.16791926913132169
5.872786613189477e-07,-0.0033321225673628163,0.1675216346258306
6.517339604882421e-07,0.02522210298381866,0.16669967502592478
7.232633896483533e-07,0.05219920556087043,0.1655704002862229
8.026433522257174e-07,0.07537074582619319,0.16434526515113324
8.907354638610439e-07,0.0928068672445228,0.16324012403452634
9.884959046625586e-07,0.10307717064540611,0.1624047566325901
1.096985797892384e-06,0.10539708968938655,0.16188961747170363
1.217382727739662e-06,0.0997030761276978,0.1616527749333747
1.3509935211980278e-06,0.08664991660758536,0.16159535697499958
1.499268432786047e-06,0.06753361680575054,0.1616061064491431
1.6638168860761274e-06,0.044151849395442255,0.16159752621488988
1.8464249428955464e-06,0.0186199109069225,0.16152422792327145
2.049074689815846e-06,-0.006836851016071677,0.16138296964532856
2.2739657523579273e-06,-0.030092779594214303,0.16119985548850313
2.523539170434766e-06,-0.04931401369781474,0.1610124259422679
2.800503894183631e-06,-0.06311597441469097,0.1608536185394732
3.107866187782014e-06,-0.07067289704125335,0.16074200615297654
3.4489622604057595e-06,-0.07177038227108312,0.16067953544338193
3.827494478516315e-06,-0.06679694605356801,0.16065527909230423
4.247571552536894e-06,-0.05667623634392793,0.1606522231294919
4.713753134116729e-06,-0.04274768020616637,0.16065401403810547
5.2310993080562585e-06,-0.026609181844369445,0.160649528992043
5.805225516094895e-06,-0.00994017342975928,0.16063447847999557
6.44236350872137e-06,0.005674164785398617,0.1606104316142631
7.149428986597577e-06,0.01889707413314401,0.1605823443809532
7.934096665797492e-06,0.028755778506710072,0.16055581055667173
8.804883581643465e-06,0.034707449741266494,0.16053497311783732
9.771241535346501e-06,0.036652078317798154,0.16052154574546498
1.0843659686896109e-05,0.03489629199370903,0.16051491181637165
1.2033778407775906e-05,0.030078370895871842,0.16051294054643317
1.3354515629298974e-05,0.023068560443750386,0.1605130439894045
1.48202070579886e-05,0.014859851141848512,0.16051306776561558
1.6446761779946626e-05,0.006462866574829196,0.16051178482016404
1.8251834943190462e-05,-0.001184935409983101,0.16050895666627973
2.0255019392306664e-05,-0.007289927186955314,0.16050507322079183
2.2478058335487252e-05,-0.011251356999260498,0.16050094935770481
2.4945081352303165e-05,-0.012690749476339303,0.16049734712882727
2.7682866303920665e-05,-0.011465671612959305,0.1604947333479108
3.072112998861759e-05,-0.007672290871183929,0.16049320664516503
3.409285069746814e-05,-0.001640092251059766,0.16049256476508614
3.783462617131933e-05,0.0060799668192779155,0.16049244791821213
4.1987070844439056e-05,0.01473503430490597,0.16049248976588368
4.659525668664687e-05,0.023400897975546675,0.16049242610551503
5.170920242896755e-05,0.031027673784360443,0.1604921398263264
5.7384416483024044e-05,0.036504298124356405,0.16049164723303508
6.368249944718586e-05,0.038743332431494526,0.1604910476813565
7.067181273927492e-05,0.036784183008020443,0.16049046330784614
7.842822061337681e-05,0.029908824734198758,0.16048999061264627
8.703591361485166e-05,0.017760306550153038,0.16048967534231834
9.658832241158708e-05,0.00045147228210917767,0.16048951135789558
0.00010718913192051276,-0.021350005982768483,0.16048945646901505
0.00011895340673703195,-0.046373780894013894,0.16048945504955736
0.0001320088400831418,-0.07274758855033014,0.1604894582372096
0.00014649713983072864,-0.09805455065020263,0.1604894360831824
0.0001625755666443795,-0.11945044123308657,0.16048938026205153
0.00018041864093920718,-0.13383915189119389,0.1604892993366136
0.00020022003718155845,-0.1380990458569764,0.16048921030233604
0.0002221946860939524,-0.12934726600335322,0.16048913017141403
0.0002465811075822604,-0.10522364342128165,0.1604890702030549
0.0002736439997074672,-0.06417102231646332,0.16048903376651072
0.00030367711180354605,-0.00568511365608515,0.1604890173873304
0.00033700643292719284,0.0694948639591062,0.16048901366820206
0.0003739937302478798,0.15928266119134982,0.16048901458821432
0.0004150404757850477,0.26025217968386993,0.16048901402333218
0.00046059220411451084,0.36777067083937176,0.16048900892925214
0.0005111433483440171,0.47626117177106053,0.16048899922053897
0.0005672426068491978,0.5795824722416318,0.1604889867816186
0.0006294988990221888,0.67149901339035,0.16048897418612088
0.0006985879746785249,0.7461987861488666,0.1604889636181192
0.0007752597488629464,0.7988072277101002,0.16048895627219292
0.000860346441668451,0.8258415562917407,0.16048895226917156
0.0009547716114208065,0.8255541335895402,0.16048895094568316
0.001059560179277617,0.79812507409325,0.16048895129541554
0.0011758495540521582,0.7456817640827271,0.16048895236008373
0.0013049019780144017,0.6721434491993579,0.16048895345112338
0.001448118227674533,0.5829093429583834,0.16048895418677453
0.0016070528182616384,0.484425728274974,0.16048895440979524
0.0017834308769319094,0.3836789553700828,0.160488954086126
0.0019791668678535573,0.2876658696552985,0.16048895326720444
0.002196385372416547,0.2028910044499792,0.16048895214363285
0.002437444150122222,0.13493186242767852,0.1604889511503178
0.002704959730463137,0.08810156493747279,0.16048895103387548
0.0030018358135755923,0.06522426433624773,0.16048895278419564
0.003331294787934677,0.06752525062559833,0.16048895737708777
0.0036969127071950323,0.09462663665101534,0.16048896536190846
0.00410265810582719,0.14463231990008296,0.16048897643149362
0.004552935074866948,0.21428325039398377,0.16048898918636037
0.00505263106533568,0.2991656079531415,0.1604890013082348
0.005607169938205458,0.3939590959848873,0.1604890102588202
0.006222570836730231,0.4927182310378111,0.1604890144244452
0.006905513520162331,0.5891839381506108,0.16048901438473734
0.007663410868007463,0.6771238722794379,0.1604890137830687
0.008504489341802686,0.7506964635801259,0.16048901922901174
0.009437878277775391,0.8048258956569292,0.16048903885305146
0.010473708979594508,0.8355648047546129,0.1604890795795888
0.011623224686798541,0.8404114616904002,0.16048914379503176
0.01289890261253308,0.8185421495011926,0.16048922665972548
0.014314589375234785,0.7709204757910753,0.16048931557157234
0.015885651294280528,0.7002550332958988,0.1604893929818718
0.01762914118095948,0.6107945044173517,0.16048944278190638
0.01956398343517065,0.5079720645179941,0.16048945896888228
0.021711179456945052,0.3979341733123922,0.16048945371288004
0.02409403560239527,0.2870074469025159,0.16048946096086686
0.026738416158399492,0.1811670335640585,0.16048953203930652
0.029673024081888724,0.08556855941064612,0.16048972177734339
0.032929712550971546,0.004193674109945533,0.16049006730407103
0.036543830709572546,-0.06036059798791804,0.1604905659224755
0.040554607358408275,-0.10694156226918405,0.16049116169426725
0.04500557675700498,-0.13576382237988005,0.160491750677704
0.0499450511585514,-0.1482252643124986,0.16049221073083084
0.05542664520663107,-0.14665329406582606,0.16049245334424606
0.06150985788580504,-0.13401796328031557,0.16049248396815072
0.06826071834272393,-0.11364185325838472,0.16049244758688558
0.0757525025877192,-0.08892679576143037,0.16049263280084908
0.08406652885618333,-0.06310802269417026,0.1604934146982813
0.09329304026284696,-0.03903975749965083,0.16049513578202804
0.10353218432956637,-0.01901384176763732,0.16049795185381938
0.11489510001873086,-0.004614465011078206,0.16050169738835032
0.1275051240713013,0.003384093228426144,0.16050584009124808
0.1414991297434576,0.005065820816358313,0.1605095847490349
0.15702901247293774,0.0013546802976844852,0.16051214566861824
0.17426333860096507,-0.006081161777332866,0.16051313974192394
0.19338917504552322,-0.015007054197654357,0.1605129771658397
0.21461411978584058,-0.02287574070354914,0.16051307439267046
0.23816855519761607,-0.0271390758700214,0.16051571739037251
0.2643081486974108,-0.025586840554229884,0.16052348579184367
0.29331662783900486,-0.016672323675722023,0.16053830769672034
0.32550885998350565,0.0002200100014411177,0.16056041260051976
0.36123426997094304,0.024606898800932697,0.16058761329148538
0.40088063288984643,0.054870942907972786,0.16061538718212331
0.4448782831127585,0.08837344331060626,0.16063807199377123
0.4937047852839004,0.12171077871157765,0.1606511270604457
0.5478901179593945,0.15108812601792287,0.16065391444032343
0.6080224261649427,0.1727654111406176,0.16065198703102557
0.67475440531107,0.1835175264478135,0.16065765237589028
0.748810385759003,0.181046637489243,0.1606878172663839
0.8309941949353403,0.16428997394699607,0.16075891140285406
0.9221978823334341,0.13358125719324843,0.1608799333487737
1.0234114021054528,0.09064549302807201,0.16104598078911964
1.135733358343105,0.03843147911120237,0.16123541735341235
1.2603829296797273,-0.019190427065895577,0.16141348554456156
1.3987131026472386,-0.07782017854013645,0.16154342458423834
1.552225357427048,-0.13295552902500596,0.1616032842690564
1.7225859653987874,-0.18040190513619336,0.1616034666653769
1.9116440753857036,-0.2166207918451324,0.16159770165093768
2.121451784910632,-0.23898778977407797,0.16167988740215908
2.35428641432242,-0.24594829330888412,0.1619621498864141
2.612675225563332,-0.2370735260344965,0.16253613630853922
2.8994228538828812,-0.21302981200897264,0.16342865466951734
3.2176417502507353,-0.1754785195620867,0.16457016357700233
3.5707859649004625,-0.12692386671240996,0.16579481114540856
3.9626886387014784,-0.0705227065916354,0.16688132268847528
4.397603609302721,-0.0098668878867052,0.1676288278813721
4.880251583654434,0.05125325585264395,0.16794772510568023
5.415871378079476,0.10909536053769786,0.16793710034034307
6.010276782070388,0.16020995230312707,0.1679169195617524
6.669919663030129,0.20166882267916764,0.16838593895718978
7.401959996915652,0.231258989229147,0.16989230135626768
8.214343584919439,0.24762376785565454,0.1728420742593002
9.115888299750837,0.25033513739789814,0.177320596286679
10.11637979766207,0.23988764428406828,0.1830185015968641
11.226677735108158,0.21761282202149257,0.18930434705388494
12.458833642950081,0.18552299942315464,0.19540432569977853
13.826221737646593,0.14610256630938512,0.20060762124961368
15.343684089300131,0.10207143387936268,0.20443167409014343
17.02769172225898,0.05614823930904178,0.20671811578788513
18.896523396912116,0.010839287052250235,0.20765531419801403
20.970464013232306,-0.031726284644746805,0.20773312663538748
23.27202478960412,-0.06990283917219431,0.20763890114409195
25.826187606826746,-0.10257301740052283,0.20811035104013773
28.66067616948256,-0.12913634155958542,0.20977449013186406
31.80625692794119,-0.14945333515363757,0.21301601085319533
35.297073027306574,-0.1637602528824358,0.21791721112737414
39.17101490809261,-0.17256998814219937,0.22428471442096085
43.47013158125035,-0.17657281266860525,0.2317399549326006
48.241087041653735,-0.17654718785239742,0.23982893639493397
53.535666774107185,-0.17328692099645893,0.24811344606105717
59.411339849650396,-0.16754721921394156,0.2562272809840032
65.93188271333541,-0.16000923876930284,0.263899237815561
73.16807143427206,-0.15126075926719673,0.27095280523191556
81.19844993184009,-0.1417896046766931,0.27729307124487823
90.11018251665037,-0.13198620447739207,0.2828887100647347
100.0,-0.12215199079461081,0.28775386169249534
