tau,gamma,sigma_gamma
1e-07,0.10845588783945459,0.29820589042735773
1.1097524964120721e-07,0.08713060068293998,0.23899522234663031
1.2315506032928263e-07,0.06409159317990998,0.2097276019024329
1.3667163564620074e-07,0.040761544658380444,0.20293577359389084
1.5167168884709241e-07,0.01849974881770322,0.20436914873594614
1.6831803533309585e-07,-0.0014815186636951694,0.2030520873011323
1.867913599020781e-07,-0.018189966362569976,0.19417954306617197
2.0729217795953698e-07,-0.03091005722490081,0.1773692876818805
2.300430119772917e-07,-0.03923929225447864,0.15484982246507786
2.5529080682395163e-07,-0.04310134858906167,0.13035853329714114
2.833096101839324e-07,-0.04273528532485216,0.10840380740736968
3.1440354715915e-07,-0.03866197811021266,0.09316301013392553
3.489101213406774e-07,-0.03163078379657236,0.08628133563919306
3.872038781812557e-07,-0.0225510047212083,0.08530414944410646
4.2970047043208437e-07,-0.0124138791607038,0.08582740948435416
4.768611697714474e-07,-0.0022114748162493925,0.08464560441469
5.291978735958437e-07,0.007141038842746639,0.08065574538708581
5.872786613189477e-07,0.014873706362777739,0.07441088965277147
6.517339604882421e-07,0.020415584137481346,0.06747811314773935
7.232633896483533e-07,0.023430223385730642,0.061724688278357774
8.026433522257174e-07,0.023830609208744136,0.05840979204579561
8.907354638610439e-07,0.021773011383629637,0.05744328888866391
9.884959046625586e-07,0.01763086615028442,0.05759577195019755
1.096985797892384e-06,0.011951329921430442,0.057500752430003486
1.217382727739662e-06,0.005398425862949807,0.056391629212800214
1.3509935211980278e-06,-0.0013123329699737951,0.054267303979172156
1.499268432786047e-06,-0.007482355758838821,0.05169635056754191
1.6638168860761274e-06,-0.01249571138578176,0.04945867480921735
1.8464249428955464e-06,-0.01587664766339003,0.04811023141215653
2.049074689815846e-06,-0.01733388840148109,0.04768075814775026
2.2739657523579273e-06,-0.016787617802037857,0.04773547878684935
2.523539170434766e-06,-0.014376296625414398,0.04771261977549391
2.800503894183631e-06,-0.010442001730552875,0.04725620355798603
3.107866187782014e-06,-0.005494762901435024,0.04634748687847707
3.4489622604057595e-06,-0.00015830440679565072,0.0452397409497445
3.827494478516315e-06,0.00489844008552609,0.04427923748379052
4.247571552536894e-06,0.00903785372429411,0.04370975080362454
4.713753134116729e-06,0.011730549798812717,0.04353809006400522
5.2310993080562585e-06,0.012624126135051483,0.04356746394693027
5.805225516094895e-06,0.011595120640777168,0.04354764792713013
6.44236350872137e-06,0.008776414117164677,0.04332127382994155
7.149428986597577e-06,0.004554285966150928,0.042883737371496825
7.934096665797492e-06,-0.000467666111944709,0.04236372056893052
8.804883581643465e-06,-0.0055366702981700655,0.04192733582781666
9.771241535346501e-06,-0.009845557309745345,0.04167940736047372
1.0843659686896109e-05,-0.01264439646183746,0.041613651296611154
1.2033778407775906e-05,-0.013355519658944104,0.041629649641741866
1.3354515629298974e-05,-0.01167607048046193,0.041611678774151825
1.48202070579886e-05,-0.007651726875337772,0.0414880806145505
1.6446761779946626e-05,-0.0017070797803171445,0.04126650163476415
1.8251834943190462e-05,0.005377552912250394,0.041014278194798685
2.0255019392306664e-05,0.012546572703286074,0.04081029129762375
2.2478058335487252e-05,0.018602366846607765,0.0407005058563904
2.4945081352303165e-05,0.022378208283043932,0.040676399338066084
2.7682866303920665e-05,0.02292951796334819,0.040685628929952616
3.072112998861759e-05,0.019716180104296654,0.04067159740498176
3.409285069746814e-05,0.012745902331516845,0.040603467074278414
3.783462617131933e-05,0.0026502226646698546,0.04048760720058798
4.1987070844439056e-05,-0.009328883585112635,0.04036170417206353
4.659525668664687e-05,-0.02145301727068727,0.040264866919283444
5.170920242896755e-05,-0.03169893734229845,0.040218757621834904
5.7384416483024044e-05,-0.03804867901271791,0.04021060848467479
6.368249944718586e-05,-0.038823783172119875,0.04021508793580569
7.067181273927492e-05,-0.03301692241439014,0.04020371276353996
7.842822061337681e-05,-0.020567438506986946,0.04016613729631522
8.703591361485166e-05,-0.002527928285417147,0.04010638279136169
9.658832241158708e-05,0.01892201467853738,0.04004324600489629
0.00010718913192051276,0.0406416767364135,0.039999570629774314
0.00011895340673703195,0.05887776569943526,0.039977762373468125
0.0001320088400831418,0.06977107406783034,0.039977350051799206
0.00014649713983072864,0.06996898843135568,0.039980700137306584
0.0001625755666443795,0.0572678987045947,0.03997090327642707
0.00018041864093920718,0.03119406175756012,0.03994979748646331
0.00020022003718155845,-0.00657249556388706,0.039917705240997865
0.0002221946860939524,-0.052016867985003046,0.039888742722142566
0.0002465811075822604,-0.09891344814968761,0.03987078625339123
0.0002736439997074672,-0.13928257670158928,0.039861137063555575
0.00030367711180354605,-0.16416336764086736,0.03986113908389212
0.00033700643292719284,-0.16464011181960814,0.03986194350191865
0.0003739937302478798,-0.13301687068997126,0.039856994789379145
0.0004150404757850477,-0.06400204421879607,0.03984389268217213
0.00046059220411451084,0.044252546460484155,0.03983036875589705
0.0005111433483440171,0.1894112461795885,0.03981786843154438
0.0005672426068491978,0.3646427070889331,0.03980904751116801
0.0006294988990221888,0.5588234533315699,0.039806105033899974
0.0006985879746785249,0.7572851920303947,0.03980669402085444
0.0007752597488629464,0.9430667714186711,0.03980750209540215
0.000860346441668451,1.0985637899175345,0.03980383009153714
0.0009547716114208065,1.207409538617867,0.03979905172073989
0.001059560179277617,1.256378735310136,0.039796451380989896
0.0011758495540521582,1.237087131874432,0.039791069939188704
0.0013049019780144017,1.1472694988278818,0.03978945199028489
0.001448118227674533,0.9914561723744555,0.03978900191053061
0.0016070528182616384,0.7809309874355677,0.03978916866998521
0.0017834308769319094,0.5329342281111167,0.0397899072176007
0.0019791668678535573,0.26916368061938556,0.03978856153425821
0.002196385372416547,0.013713865693716798,0.039792157945675546
0.002437444150122222,-0.20933318157040048,0.03979408612411036
0.002704959730463137,-0.37840251300804084,0.039800079384917565
0.0030018358135755923,-0.47672420923481695,0.03980375526441386
0.003331294787934677,-0.49416776048747124,0.03980606519684243
0.0036969127071950323,-0.4283942528854823,0.03980393179719592
0.00410265810582719,-0.28518382796028163,0.039805376914345186
0.004552935074866948,-0.0778907822095789,0.039808036673339695
0.00505263106533568,0.17391926252821577,0.03981780165291143
0.005607169938205458,0.4464992066423292,0.03983182929974248
0.006222570836730231,0.7143877111593611,0.03984561878482469
0.006905513520162331,0.9530332404465298,0.03985553116608368
0.007663410868007463,1.1412775903954753,0.03985879300605957
0.008504489341802686,1.263421130788629,0.039858162284514026
0.009437878277775391,1.3106451830099104,0.03985831898682656
0.010473708979594508,1.281646815885324,0.039870128298185904
0.011623224686798541,1.1824374952157086,0.03989469277976965
0.01289890261253308,1.0253570843560738,0.039923269344112784
0.014314589375234785,0.8274459584099532,0.03995224291122063
0.015885651294280528,0.608389110508142,0.039970765445035195
0.01762914118095948,0.38828861112415325,0.03997690340729023
0.01956398343517065,0.18553007790978882,0.03997597489587207
0.021711179456945052,0.014984841898694867,0.03997898278891445
0.02409403560239527,-0.11326346704663592,0.04000275683510248
0.026738416158399492,-0.19455319659755332,0.0400536801347727
0.029673024081888724,-0.22960971183056245,0.040116819563502895
0.032929712550971546,-0.2238949151178531,0.040174790916611365
0.036543830709572546,-0.1864671589282807,0.04020768036459706
0.040554607358408275,-0.12852926148480037,0.04021418310770551
0.04500557675700498,-0.061868117467383854,0.040207562966884
0.0499450511585514,0.002612681782920845,0.040223364284887805
0.05542664520663107,0.056093735325703165,0.04027888095547519
0.06150985788580504,0.09264914775121724,0.04038263244279742
0.06826071834272393,0.10960024728410644,0.04051074403729634
0.0757525025877192,0.10741433019575197,0.04061888967469036
0.08406652885618333,0.08920836224206141,0.040677935991406955
0.09329304026284696,0.05996393330860883,0.0406850434627704
0.10353218432956637,0.025587916985386983,0.04067724904954528
0.11489510001873086,-0.008039136904699262,0.040713312809549915
0.1275051240713013,-0.03589718463626923,0.040840694302890966
0.1414991297434576,-0.05444261756929336,0.04105899817361609
0.15702901247293774,-0.06194508262706222,0.04131049586439717
0.17426333860096507,-0.05852889419475105,0.04151854411128811
0.19338917504552322,-0.04594526425717049,0.04162075578232719
0.21461411978584058,-0.02713632177983527,0.04162406457718384
0.23816855519761607,-0.005674718251611921,0.04161171178260579
0.2643081486974108,0.014828546683929744,0.041708207715289644
0.29331662783900486,0.03126049410093401,0.04199239537672486
0.32550885998350565,0.0414160011750937,0.04245610549024913
0.36123426997094304,0.044235492021471146,0.04297242102487226
0.40088063288984643,0.039853866526755155,0.04337614645650717
0.4448782831127585,0.02947242578738951,0.043560273265621806
0.4937047852839004,0.015089363147126278,0.043552718196508
0.5478901179593945,-0.000859254472743487,0.04354300945402744
0.6080224261649427,-0.015888716641711653,0.04377895182352788
0.67475440531107,-0.027827491865537013,0.044428302216221405
0.748810385759003,-0.035103573489323026,0.045443104782407755
0.8309941949353403,-0.03692248681909405,0.046539972480623526
0.9221978823334341,-0.03332224078621948,0.047375368088972906
1.0234114021054528,-0.025108760532020824,0.047739144605632396
1.135733358343105,-0.013691169790035929,0.04771252073227432
1.2603829296797273,-0.000847833256557351,0.04770442826672289
1.3987131026472386,0.011539748888026224,0.048281034837099154
1.552225357427048,0.021747478653196595,0.049816320388118784
1.7225859653987874,0.028430272983314353,0.05217021114746322
1.9116440753857036,0.03077956750348676,0.054719015135106026
2.121451784910632,0.02860199299720989,0.05668322274080558
2.35428641432242,0.022315655422062264,0.057581245393730184
2.612675225563332,0.012870797261712141,0.05754981765440873
2.8994228538828812,0.001609998007552349,0.05749102289713703
3.2176417502507353,-0.009911272776662372,0.05882561759036127
3.5707859649004625,-0.0201203156466363,0.0626322939931817
3.9626886387014784,-0.027615953670647286,0.06873237734201566
4.397603609302721,-0.03133007597261894,0.07568200415691224
4.880251583654434,-0.03064634853217285,0.08160261318486188
5.415871378079476,-0.025466258143751475,0.08507262092574558
6.010276782070388,-0.01621880125003372,0.08579276652646707
6.669919663030129,-0.0038159820842338377,0.08524296374303471
7.401959996915652,0.010438693013384182,0.086991497557353
8.214343584919439,0.024977694461085775,0.0953616049495308
9.115888299750837,0.0381194208166562,0.11208903043979616
10.11637979766207,0.04822607234109455,0.13486561660490468
11.226677735108158,0.05385518169623538,0.1593180597903492
12.458833642950081,0.05389198815828422,0.1810234379633223
13.826221737646593,0.04765222199694108,0.19646521597671546
15.343684089300131,0.034947903695865534,0.2037988448317154
17.02769172225898,0.016112169042571622,0.20407081684802858
18.896523396912116,-0.00801737864549068,0.20314880187551024
20.970464013232306,-0.0361539786999856,0.21309261313821584
23.27202478960412,-0.06664999171061936,0.2477285874098455
25.826187606826746,-0.09761017538130545,0.3123802109245424
28.66067616948256,-0.12702046562299074,0.40216954779249864
31.80625692794119,-0.1528820748517319,0.5086070818828898
35.297073027306574,-0.17334086055416265,0.6233093567436465
39.17101490809261,-0.18680283585490542,0.7386314086584553
43.47013158125035,-0.19202827126764532,0.8476942295929534
48.241087041653735,-0.18819890634222247,0.9445373577057132
53.535666774107185,-0.17495514629217723,1.024425129940411
59.411339849650396,-0.15240255484013687,1.0842497570307874
65.93188271333541,-0.12108925532447756,1.122997096371011
73.16807143427206,-0.08195784275358164,1.1422619962940077
81.19844993184009,-0.036276948131671816,1.1467843771739705
90.11018251665037,0.01444140398689342,1.1448738362385786
100.0,0.06853207400035899,1.148335819391927
