tau,gamma,sigma_gamma
1e-07,-0.4813297620856072,4.891534916915242
1.1097524964120721e-07,-0.5296703317100648,4.868391689772213
1.2315506032928263e-07,-0.5820658409097534,4.840674644211097
1.3667163564620074e-07,-0.6386513010762682,4.8076109412115215
1.5167168884709241e-07,-0.6995128547659886,4.768340944365206
1.6831803533309585e-07,-0.7646735190340559,4.7219225594859475
1.867913599020781e-07,-0.8340774061022849,4.667341013075059
2.0729217795953698e-07,-0.9075727201243078,4.603525392630496
2.300430119772917e-07,-0.9848939900284299,4.529373285256333
2.5529080682395163e-07,-1.0656441796430531,4.443784779799518
2.833096101839324e-07,-1.1492775099947394,4.345706928713994
3.1440354715915e-07,-1.2350840237005078,4.234189494314381
3.489101213406774e-07,-1.322177102960591,4.1084524370030255
3.872038781812557e-07,-1.4094853025757876,3.967965161285249
4.2970047043208437e-07,-1.4957499567094406,3.812537052746438
4.768611697714474e-07,-1.579530040303065,3.6424183541818276
5.291978735958437e-07,-1.6592156908554099,3.458409959828854
5.872786613189477e-07,-1.7330516038373354,3.2619801877657415
6.517339604882421e-07,-1.7991711905268293,3.0553857275363714
7.232633896483533e-07,-1.8556419235325343,2.841791914788796
8.026433522257174e-07,-1.9005216963025298,2.625382253882675
8.907354638610439e-07,-1.9319253049121095,2.411434506751833
9.884959046625586e-07,-1.9480993541822738,2.2063134256870733
1.096985797892384e-06,-1.9475030412205996,2.017280233958612
1.217382727739662e-06,-1.9288914369384411,1.8519519275736773
1.3509935211980278e-06,-1.891397139941402,1.717218565621596
1.499268432786047e-06,-1.8346055936510766,1.6175952939868221
1.6638168860761274e-06,-1.75861901297354,1.5534746300333808
1.8464249428955464e-06,-1.6641038304265017,1.5202616849722628
2.049074689815846e-06,-1.5523168972866728,1.5091557606953374
2.2739657523579273e-06,-1.4251063938302586,1.5092545739365035
2.523539170434766e-06,-1.2848845150283665,1.5098438628402011
2.800503894183631e-06,-1.134570470332804,1.5019939233343071
3.107866187782014e-06,-0.9775040980053049,1.4793115226089402
3.4489622604057595e-06,-0.8173323402862991,1.4381109071007403
3.827494478516315e-06,-0.6578728203900859,1.3772960102678908
4.247571552536894e-06,-0.5029606502176698,1.2981332812325184
4.713753134116729e-06,-0.3562862151536237,1.2039946386042708
5.2310993080562585e-06,-0.22123287243075396,1.1000897422471323
5.805225516094895e-06,-0.10072412773058304,0.9931600582519778
6.44236350872137e-06,0.0029101763425281035,0.8910347872327364
7.149428986597577e-06,0.08803986395995622,0.8018259296865426
7.934096665797492e-06,0.1538052593509711,0.7324566398152104
8.804883581643465e-06,0.20014754338908602,0.686543840252249
9.771241535346501e-06,0.22779587462257922,0.6626870450114711
1.0843659686896109e-05,0.23821137223994882,0.6548269603503817
1.2033778407775906e-05,0.2334910055699524,0.6548013918526242
1.3354515629298974e-05,0.21623723709031495,0.655210902155779
1.48202070579886e-05,0.18940169201033896,0.6510476941681607
1.6446761779946626e-05,0.15611297140074853,0.6400524630877864
1.8251834943190462e-05,0.11949982719993812,0.6223856932198797
2.0255019392306664e-05,0.0825211773173784,0.600029829885238
2.2478058335487252e-05,0.04781383025800778,0.5760683403047592
2.4945081352303165e-05,0.01756735902738704,0.5538628161976263
2.7682866303920665e-05,-0.0065665674934489715,0.5361783674682515
3.072112998861759e-05,-0.023525741740446193,0.5244454790094608
3.409285069746814e-05,-0.03284816323429496,0.5184509271448968
3.783462617131933e-05,-0.03464328081914303,0.5166237545879689
4.1987070844439056e-05,-0.02952785499888222,0.516753711004769
4.659525668664687e-05,-0.01853296355836065,0.5167655434799291
5.170920242896755e-05,-0.002990474822041733,0.5152522451664356
5.7384416483024044e-05,0.015591609535239748,0.511681245111197
6.368249944718586e-05,0.035655245047580664,0.5063276140092173
7.067181273927492e-05,0.05571064811106563,0.5000265942749184
7.842822061337681e-05,0.07443876531521543,0.49383422036070934
8.703591361485166e-05,0.09077159826433245,0.4886829966731099
9.658832241158708e-05,0.10394620220065764,0.4851209031405262
0.00010718913192051276,0.11353049949333993,0.4832037259422133
0.00011895340673703195,0.11942136381036361,0.4825590349292903
0.0001320088400831418,0.12181754816820911,0.48257465035095753
0.00014649713983072864,0.12117178936538187,0.48262469301052846
0.0001625755666443795,0.11812770275522855,0.48225201990395866
0.00018041864093920718,0.11344781370315538,0.48126192601665074
0.00020022003718155845,0.1079392356173936,0.4797212105080996
0.0002221946860939524,0.1023831287868493,0.47788373991556576
0.0002465811075822604,0.09747323227031623,0.47607721433545025
0.0002736439997074672,0.09376755927955727,0.47458920024442874
0.00030367711180354605,0.0916559132996182,0.47358518008187217
0.00033700643292719284,0.09134435516458339,0.4730779410835667
0.0003739937302478798,0.09285626469712405,0.47294921575852134
0.0004150404757850477,0.09604831408313186,0.4730076380468291
0.00046059220411451084,0.10063860020535187,0.47305826643956345
0.0005111433483440171,0.10624343640441625,0.4729602871435506
0.0005672426068491978,0.11241891455685582,0.47265814275292134
0.0006294988990221888,0.11870331717676996,0.4721822487638961
0.0006985879746785249,0.12465675764585149,0.4716247008005706
0.0007752597488629464,0.12989500082717198,0.4711010738446199
0.000860346441668451,0.13411519404982009,0.4707112169412602
0.0009547716114208065,0.13711213685492996,0.47051022284705407
0.001059560179277617,0.13878465114048366,0.4704963940254417
0.0011758495540521582,0.1391325000468413,0.47061742431719406
0.0013049019780144017,0.1382450734882958,0.47079085971464635
0.001448118227674533,0.13628365574552354,0.47093158641825156
0.0016070528182616384,0.13345947995809293,0.47097818407735753
0.0017834308769319094,0.13000993993189308,0.4709111700639876
0.0019791668678535573,0.12617527554261987,0.4707586789031751
0.002196385372416547,0.12217779628467973,0.4705882451096364
0.002437444150122222,0.11820529506079816,0.4704866243263515
0.002704959730463137,0.11439977865274893,0.47053264166134784
0.0030018358135755923,0.11085205598638803,0.47077038906606383
0.003331294787934677,0.10760213508426908,0.47119094023557945
0.0036969127071950323,0.10464483601250493,0.4717293983048165
0.00410265810582719,0.10193957451410586,0.47228035838276333
0.004552935074866948,0.09942294342010867,0.4727295058503562
0.00505263106533568,0.0970225379637372,0.47299357605093545
0.005607169938205458,0.0946704449598224,0.47305694027434164
0.006222570836730231,0.09231493920772713,0.4729919668111993
0.006905513520162331,0.08992918584584811,0.47295281711781306
0.007663410868007463,0.08751610675073812,0.473138756702271
0.008504489341802686,0.08510899671534917,0.47373281502520925
0.009437878277775391,0.08276793073454344,0.4748324758863002
0.010473708979594508,0.08057244571508837,0.4763967304780572
0.011623224686798541,0.07861136889069276,0.4782333832799627
0.01289890261253308,0.07697096699305722,0.48003986594917664
0.014314589375234785,0.07572277855243995,0.4814931122957036
0.015885651294280528,0.07491255024080551,0.4823661454400021
0.01762914118095948,0.07455162173743718,0.4826369917505001
0.01956398343517065,0.07461189849934513,0.48255181203049075
0.021711179456945052,0.07502523532001157,0.4826092082111882
0.02409403560239527,0.0756876524749707,0.48344850347153273
0.026738416158399492,0.07646835478173183,0.48565449826322954
0.029673024081888724,0.07722306085981728,0.48953151710128073
0.032929712550971546,0.07781071552302007,0.4949321183275685
0.036543830709572546,0.07811229094415204,0.5012233418986072
0.040554607358408275,0.07805011527178085,0.5074262650759436
0.04500557675700498,0.0776060260548441,0.512498810659704
0.0499450511585514,0.07683664526320694,0.5156859069523866
0.05542664520663107,0.07588421636759879,0.5168482615312474
0.06150985788580504,0.07498172327410746,0.5166831343933136
0.06826071834272393,0.07445140576671494,0.5167471164991296
0.0757525025877192,0.0746962663827278,0.5191905933848988
0.08406652885618333,0.07618469165607572,0.526166995839116
0.09329304026284696,0.07942884429412272,0.5390406562604672
0.10353218432956637,0.08495797907969554,0.5577227230876857
0.11489510001873086,0.09328825383030254,0.5804941221695401
0.1275051240713013,0.10489091349964397,0.6044148994162756
0.1414991297434576,0.12016089545988123,0.6261089687523825
0.15702901247293774,0.1393879233447402,0.6426384446139686
0.17426333860096507,0.16273202407227005,0.6523085876261276
0.19338917504552322,0.19020512865676964,0.6553689407555707
0.21461411978584058,0.2216600242959864,0.6545785850696698
0.23816855519761607,0.25678744434499123,0.6554481448942073
0.2643081486974108,0.29512155192204237,0.6656876754734105
0.29331662783900486,0.3360535328572004,0.6933058478657184
0.32550885998350565,0.3788525048602811,0.7436410337592588
0.36123426997094304,0.4226925087003228,0.8171075638302362
0.40088063288984643,0.46668400367853347,0.9093074286584746
0.4448782831127585,0.5099080646483904,1.0129484854608757
0.4937047852839004,0.5514513819773565,1.1198835100716187
0.5478901179593945,0.5904401992847055,1.222439768844245
0.6080224261649427,0.6260714767117979,1.3141336432305037
0.67475440531107,0.6576398215641145,1.390076379201415
0.748810385759003,0.6845590586736324,1.4472681614652592
0.8309941949353403,0.7063776911139494,1.4848632726713087
0.9221978823334341,0.7227878980293522,1.504424437181424
1.0234114021054528,0.7336281016349995,1.5101380379257139
1.135733358343105,0.7388794846738796,1.50889539573771
1.2603829296797273,0.7386571326724908,1.5100382435265056
1.3987131026472386,0.7331966983204452,1.524463631526278
1.552225357427048,0.7228376309411945,1.5628666252564316
1.7225859653987874,0.7080040815016134,1.633398237976114
1.9116440753857036,0.6891845878442424,1.7397314898691318
2.121451784910632,0.6669115753661641,1.8805995387618744
2.35428641432242,0.6417415880399922,2.050904395517028
2.612675225563332,0.6142370081396058,2.243510185988027
2.8994228538828812,0.5849498454060854,2.4508025228177983
3.2176417502507353,0.5544079920017028,2.6656593595431968
3.5707859649004625,0.5231041610395065,2.881911232578619
3.9626886387014784,0.49148756391173254,3.094487039502817
4.397603609302721,0.4599582424600673,3.299400062418094
4.880251583654434,0.42886386076564087,3.4936629569815105
5.415871378079476,0.39849867983134957,3.675175033988263
6.010276782070388,0.369104386196775,3.8426013198917164
6.669919663030129,0.3408724202230626,3.9952521072979494
7.401959996915652,0.313947447742122,4.132967304103554
8.214343584919439,0.2884316355163419,4.256008170131158
9.115888299750837,0.2643894217247006,4.364958272210872
10.11637979766207,0.24185251279687972,4.46063499150744
11.226677735108158,0.2208248830835679,4.544012445870184
12.458833642950081,0.2012876004213605,4.616156202900466
13.826221737646593,0.18320334570114966,4.6781696814249685
15.343684089300131,0.16652053592368052,4.731151708969409
17.02769172225898,0.1511769965029189,4.776164352390947
18.896523396912116,0.13710315898963665,4.81420988623473
20.970464013232306,0.12422478471134457,4.84621561321592
23.27202478960412,0.11246523326085298,4.873025196955981
25.826187606826746,0.10174730781593228,4.895395194439326
28.66067616948256,0.09199471762763979,4.913995566025673
31.80625692794119,0.08313320245971079,4.929413074357842
35.297073027306574,0.07509136509781263,4.942156641299228
39.17101490809261,0.06780125703836276,4.952663897918851
43.47013158125035,0.06119875979772057,4.961308323830545
48.241087041653735,0.05522380054120475,4.968406519961328
53.535666774107185,0.04982043639767221,4.974225287670278
59.411339849650396,0.04493683727403426,4.97898829464447
65.93188271333541,0.04052519249223509,4.982882194039069
73.16807143427206,0.036541562331180194,4.986062129371068
81.19844993184009,0.03294569168932154,4.988656606139501
90.11018251665037,0.029700799655308883,4.990771744887179
100.0,0.02677335580699609,4.992494952352202
