freq,Zreal,Zimag,sigma_im
0.01,2.0844085968550283,-0.002315964571607765,6.876919144360727e-06
0.01258925411794166,2.0451684573317537,-0.004737500115879811,4.2210853123947345e-06
0.01584893192461111,2.02275575550839,-0.002666033346031327,3.1166605793941926e-06
0.019952623149688792,2.0108381690799435,-0.0007530164475610945,2.6433147084503616e-06
0.02511886431509577,2.004308975929394,-0.00021420259145088494,2.6617836752507174e-06
0.031622776601683784,2.0001846884647083,-0.00046509674211847596,2.3305249392535643e-06
0.039810717055349686,1.997385253344437,-0.0006710875877615763,2.2856542472027286e-06
0.05011872336272714,1.9958387738463366,-0.0006061974218027899,2.3419640839961176e-06
0.0630957344480193,1.9955552246466328,-0.0006916712172824191,2.250535747094773e-06
0.07943282347242805,1.9961517721599484,-0.0015252156954375096,2.246941772199307e-06
0.1,1.9969320208589285,-0.003389043609786313,2.261559405525304e-06
0.12589254117941662,1.9972728563254056,-0.006089299538871273,2.21246469678249e-06
0.1584893192461111,1.9969519862230753,-0.009169809472950874,2.171873433098881e-06
0.1995262314968879,1.9961849346982132,-0.01228198306671402,2.212692681524686e-06
0.2511886431509577,1.995393988213175,-0.015435888250067364,2.120903051405776e-06
0.31622776601683794,1.994910930342807,-0.019000500980837387,2.1209378608944007e-06
0.3981071705534969,1.9948120378762249,-0.023523932595708175,2.0793992838719078e-06
0.5011872336272715,1.9949388628662323,-0.029546988171205157,2.1118665500807765e-06
0.6309573444801929,1.995011333437171,-0.03753265432897024,2.096680880470103e-06
0.7943282347242805,1.9947073464516005,-0.04790215220054961,2.0897718329138115e-06
1.0,1.9936665241617053,-0.06108757897527539,2.122593642184256e-06
1.2589254117941662,1.991471035708805,-0.07754645825843909,2.1365876108347948e-06
1.584893192461111,1.9876559495233135,-0.09777920220585656,2.155440625983829e-06
1.9952623149688788,1.981700711583549,-0.12242353394685779,2.0474953501548043e-06
2.5118864315095766,1.9728649176234558,-0.15239886488052434,2.0618271392436327e-06
3.1622776601683795,1.959789097639359,-0.18890530140561168,2.076775743375947e-06
3.981071705534969,1.9400054581257467,-0.23301662162702996,2.0897090315941114e-06
5.011872336272715,1.9097482996624042,-0.28477803301939275,2.0920395584766993e-06
6.30957344480193,1.864493229920062,-0.3420888075015682,2.060341188325765e-06
7.943282347242805,1.8003599830512713,-0.39998722964082845,2.1015864604123635e-06
10.0,1.7159890196001235,-0.4509819861195865,2.1509109444650676e-06
12.589254117941664,1.6140566655550375,-0.48667067190399393,2.1138530215125684e-06
15.848931924611108,1.501553371201068,-0.5002154513567802,2.145441001744075e-06
19.95262314968879,1.3884255608702556,-0.48868711050090496,2.160914213789056e-06
25.118864315095767,1.2849617277800607,-0.4542049094707181,2.184434762853016e-06
31.622776601683796,1.1989590958723473,-0.40329439944343903,2.1681079438451434e-06
39.81071705534969,1.133852630696739,-0.3447156134816396,2.1190709134089047e-06
50.11872336272725,1.0885257844829,-0.2867263584939792,2.1672647463333305e-06
63.09573444801929,1.0587082429310155,-0.23494924536817052,2.135529513225265e-06
79.43282347242804,1.0391525191592423,-0.1916178548017342,2.150219209795523e-06
100.0,1.0255414854204083,-0.15623802247137064,2.1323847647636285e-06
125.89254117941664,1.0153919226809702,-0.12704239676804718,2.0823381348122894e-06
158.48931924611125,1.0078481213445376,-0.10237746072471055,2.1099236811039646e-06
199.5262314968879,1.0028216338897582,-0.08140521217319474,2.1325793255755343e-06
251.18864315095797,1.0001386322832708,-0.06401198036292044,2.077438946201937e-06
316.227766016838,0.9991624218320948,-0.050265148072867305,2.123386092733881e-06
398.10717055349687,0.9989561371436495,-0.03990982725918002,2.0541817953301234e-06
501.187233627272,0.9987126970349018,-0.03223137388522446,2.1044919620294422e-06
630.957344480193,0.9980865296975373,-0.02629366268956801,2.0478447488869733e-06
794.3282347242813,0.9972135937696218,-0.021318188541044947,1.9871676641969316e-06
1000.0,0.9964563557483725,-0.01692713778538746,2.065455831257168e-06
1258.9254117941662,0.9960833874518944,-0.013116750938934274,1.991866639627915e-06
1584.8931924611124,0.996096940258949,-0.010027939213614445,2.0312863071580978e-06
1995.2623149688789,0.9962870492007443,-0.0077002788457321,2.02175568375651e-06
2511.8864315095802,0.9964287182781082,-0.0059739193857240025,2.0989313114228025e-06
3162.2776601683795,0.9964578461404476,-0.004577873995003756,2.015649052111712e-06
3981.0717055349687,0.9965007723831325,-0.0033113049721578136,1.9942754292401332e-06
5011.8723362727205,0.9967489282428422,-0.0021721179509768263,2.0476914102118826e-06
6309.57344480193,0.9972788451025768,-0.0013373938127188012,2.0483105522828282e-06
7943.282347242814,0.9979496874227535,-0.0010092547163367271,2.0831010729693844e-06
10000.0,0.9984528583018515,-0.0012314148516452406,2.111109612457085e-06
12589.254117941662,0.9984854838852725,-0.0017996513997786678,2.080929395020803e-06
15848.93192461114,0.9979396703181482,-0.0023277147483895533,2.1108945844616755e-06
19952.623149688792,0.996990229839447,-0.002434684785839636,2.1225978770189613e-06
25118.864315095827,0.9960260907019314,-0.001929483123603859,2.1559754266320397e-06
31622.776601683792,0.9954628355189394,-0.0009457084688619943,2.1441660962295828e-06
39810.71705534969,0.995539755840616,0.00017229627519554924,2.210015878745253e-06
50118.72336272724,0.9962087879834308,0.0010066115710287704,2.1475328964015716e-06
63095.7344480193,0.9971679988055961,0.0012603865798155311,2.162414098449972e-06
79432.82347242821,0.9980147750113212,0.0009163288846139039,2.1615116843065607e-06
100000.0,0.9984372957650646,0.00019882806645910023,2.203950018042633e-06
125892.5411794166,0.9983531698931686,-0.0005205157440286712,2.2379887880674687e-06
158489.3192461114,0.99793820764108,-0.0009157984750345349,2.3113119951290173e-06
199526.2314968879,0.9975417098765429,-0.0008494698431604775,2.3534342048492363e-06
251188.6431509582,0.9975298035734708,-0.00043398065008659614,2.329537039713614e-06
316227.7660168379,0.998119818984356,1.2345204595476389e-05,2.4240768290439973e-06
398107.17055349686,0.999266640269483,0.00011182573962287279,2.6926471932142704e-06
501187.2336272725,1.000644416783843,-0.0003231559221603675,2.7571419565219912e-06
630957.344480193,1.001739756499955,-0.0011210012053197715,3.155206396598942e-06
794328.2347242822,1.0020356165696898,-0.0015247536057358957,4.315714235758605e-06
1000000.0,1.0012206310236498,-0.0001672291873546783,6.983205246058333e-06
