tau,gamma,sigma_gamma
1.5915494309189534e-05,-0.00028311272083840586,0.053455733067956424
1.7662259541255212e-05,-0.000313480307135276,0.05338289931023477
1.9600736618185914e-05,-0.00034692932791555864,0.053293742749015084
2.175196639354731e-05,-0.0003837102126907389,0.05318475207665921
2.4139299007110626e-05,-0.0004240714621874548,0.053051732173788974
2.6788647334778468e-05,-0.00046825029866336284,0.05288970533033511
2.972876825527301e-05,-0.0005164598590851419,0.05269281506876241
3.2991574786545186e-05,-0.0005688721267184439,0.05245424269566078
3.661248247993406e-05,-0.0006255957550419554,0.052166151704559155
4.0630793831950074e-05,-0.0006866479738349034,0.05181968145768316
4.509012488621082e-05,-0.0007519199256447531,0.05140501906705668
5.0038878656004554e-05,-0.0008211351150326407,0.05091158661410771
5.55307705061618e-05,-0.0008938012198425685,0.05032838881056093
6.162541119689893e-05,-0.0009691563637743786,0.049644572206381306
6.838895391817905e-05,-0.0010461121120335984,0.04885024844772084
7.58948123377093e-05,-0.0011231969149707787,0.047937627083011435
8.422445745649861e-05,-0.001198505412933361,0.04690248285763682
9.34683019213017e-05,-0.0012696607689832804,0.04574594162813171
0.00010372668139256173,-0.0013337987575646967,0.044476499624324914
0.00011511094361993503,-0.0013875833567429646,0.043112083278455844
0.00012774465704657218,-0.0014272636558532534,0.04168180310322657
0.00014176495206073746,-0.0014487805817199502,0.04022685679583811
0.00015732400945314112,-0.001447928931696886,0.038799825952009336
0.0001745907122361798,-0.0014205753386569017,0.0374614874133258
0.00019375247875446226,-0.0013629262365652368,0.036274429818445496
0.00021501729698379145,-0.0012718321723160474,0.03529350489859268
0.00023861598209953821,-0.0011451068332396952,0.034554568703302126
0.0002648046818187808,-0.0009818321580136046,0.034064621828711276
0.00029386765670999645,-0.0007826162488484118,0.03379716695732921
0.0003261203656486841,-0.0005497697871940702,0.033695290511393104
0.00036191288990944495,-0.0002873701798503758,0.03368201232835097
0.00040163373306071395,-1.1909989751967068e-06,0.03367472153836943
0.0004457140379074271,0.0003015131012341194,0.033599663058453084
0.0004946322662536722,0.0006123602563497602,0.03340339666103406
0.0005489193922809734,0.0009223118492671422,0.03305971655932282
0.0006091646659128077,0.0012222223392249387,0.03257171102492195
0.0006760220087227636,0.0015034200070015479,0.03196923951220322
0.0007502171118095905,0.0017582645178045257,0.03130237331904778
0.0008325553126817477,0.0019806281490512933,0.03063163988097271
0.0009239303366497019,0.0021662550282621966,0.030016456212026057
0.001025333997607853,0.0023129657212870337,0.029503882083207804
0.0011378669635014843,0.002420691132825256,0.029120331658096653
0.0012627507033305964,0.0024913375943608064,0.028868498391920502
0.0014013407453672294,0.002528501834892262,0.028730196076560403
0.0015551413904952365,0.0025370682175175976,0.028673736689916282
0.0017258220403758298,0.0025227297800299218,0.02866305707070338
0.001915235317670051,0.002491478628925788,0.02866578676461555
0.002125437175000907,0.0024491102729740036,0.028658508332058612
0.002358709210924279,0.00240078135223551,0.028628764995022177
0.0026175834351333674,0.0023506521368691193,0.0285743121868183
0.0029048697517061414,0.002301635500934686,0.02850055001032225
0.0032236864587078034,0.0022552640946888543,0.02841714403601022
0.003577494095200777,0.002211678156813763,0.02833470725310699
0.00397013300304851,0.0021697284836220882,0.028262179483370058
0.004405865011221041,0.00212718279970098,0.028205255467717318
0.0048894196950571515,0.0020810191400912432,0.02816592161932598
0.0054260457125960265,0.002027786632994956,0.02814291427180273
0.006021567775199456,0.0019640119376747693,0.028132756530146193
0.006682449870842083,0.0018866282173376594,0.028130989092828403
0.007415865426315531,0.001793402660281401,0.02813326939638933
0.008229775169909635,0.0016833380767345765,0.028136133203324122
0.009133013539717303,0.001557024007153768,0.028137346998318255
0.01013538457546652,0.001416913227262913,0.028135892509400236
0.011247768334720383,0.0012675007777453494,0.028131697355573672
0.0124822389885206,0.0011153849934137222,0.028125253847663866
0.013852195878322836,0.0009691937689297688,0.028117256611002176
0.015372508956757782,0.0008393647176617237,0.02810834999821268
0.01705968019087887,0.0007377750582104234,0.028099022490818328
0.018932022679819402,0.0006772258957117245,0.028089632598622592
0.021009859431059548,0.0006707956993752086,0.02808051229348146
0.02331574395288505,0.0007310886001459495,0.028072077981649974
0.02587470505741886,0.0008694137973085373,0.02806488695029373
0.028714518531396612,0.0010949418640676177,0.028059604045336913
0.0318660086234881,0.0014138910192923993,0.028056879270575437
0.03536338262060454,0.0018288004986049876,0.028057170533199376
0.039244602144791176,0.0023379482280926006,0.02806056687701068
0.043551795200880566,0.0029349656070775322,0.028066670430178717
0.04833171344740451,0.003608693262655781,0.028074579913021504
0.05363623965413002,0.004343308493038422,0.028082990497149976
0.05952295085432696,0.005118738526123613,0.02809039330766313
0.06605574330440243,0.005911354797563932,0.028095332519708097
0.07330552603441562,0.006694923577792364,0.02809666553778167
0.08135099051749288,0.007441768979077437,0.028093774041744634
0.09027946481238244,0.008124087202225573,0.028086687832957445
0.10018786145028723,0.00871533727948359,0.028076103526571004
0.11118372935464306,0.00919162474601206,0.028063299933285473
0.1233864212117193,0.009532991502700452,0.028049967064620554
0.13692838896305695,0.009724528080652137,0.028037974693209074
0.15195662148143568,0.00975723358419508,0.028029110578846654
0.16863424003536756,0.009628563301678305,0.028024820257318304
0.18714226885980173,0.009342623403809185,0.0280259813699832
0.20768160005138378,0.008909994969597618,0.028032745564589574
0.23047517411587662,0.008347194148435258,0.0280444777566814
0.2557703998361011,0.007675799746299254,0.028059813236980494
0.283841839726427,0.006921302026358999,0.028076836505749814
0.31499419022259767,0.006111745263035187,0.02809336356247345
0.34956558895482687,0.005276250086996715,0.028107286417834974
0.3879312850023754,0.0044435088430563015,0.02811692104840847
0.43050771196772913,0.003640347540512857,0.028121293372795297
0.4777570080808367,0.002890441604227151,0.028120304991771962
0.5301920323960712,0.0022132602320693627,0.028114740915581495
0.58838193152933,0.0016232969406853514,0.028106111707485365
0.6529583173584296,0.0011296234093309536,0.028096356646886787
0.7246221227415434,0.0007357817546334607,0.028087465854673487
0.8041512096678427,0.00044000860371809134,0.02808110108220311
0.892408812421676,0.0002357642939695378,0.028078301481714106
0.9903529074050875,0.00011252340589895963,0.028079348948963658
1.0990466113217496,5.676944090137853e-05,0.028083837735418924
1.2196697205875398,5.3127221109037256e-05,0.02809094896576251
1.353531517220237,8.55616215604766e-05,0.02809987985981248
1.5020849802075775,0.0001385704021405642,0.02811032947891405
1.6669425566084373,0.00019830186876726625,0.028122908240038654
1.849893663571735,0.00025353442321630307,0.028139327698528515
2.0529241112456025,0.0002964642413151415,0.028162249561867636
2.278237657399342,0.0003232587721236593,0.02819473491775583
2.528279927718911,0.00033434685281427657,0.02823933551286809
2.8057649614145945,0.0003344303378340469,0.028296995087313793
3.1137046702753675,0.00033221660846206977,0.028366050098120356
3.455441530928017,0.00033988557301338094,0.028441692494242096
3.8346848651533194,0.00037231829024472133,0.028516240672160124
4.255551102057486,0.00044612675606296856,0.02858043770544891
4.72260845911744,0.0005785353820676124,0.028625771500621632
5.240926527082348,0.0007861739944303441,0.02864753092662227
5.816131296941876,0.0010838494804238348,0.028648025270957524
6.45446622624163,0.001483368073935368,0.028639147242057482
7.162860007579055,0.00199248210257062,0.028643305421246223
7.949001774861049,0.0026140330769325697,0.028691786218671203
8.821424563636043,0.003345356509013237,0.02881998316819969
9.789597931405872,0.004178002168927317,0.029059790846793852
10.864030743248122,0.0050978063743241766,0.029430707649374603
12.056385238417104,0.006085330713272653,0.02993229062503858
13.379603616039038,0.0071166554683866875,0.030540747288049428
14.84804851390331,0.008164487903586695,0.03121123593387831
16.477658905151753,0.009199518171395341,0.03188545157214276
18.28612310501873,0.010191931995339718,0.03250245345118268
20.29307076549301,0.011112972565918214,0.03301016356507062
22.520285941872707,0.011936436830006855,0.033375366583218075
24.99194354390693,0.012639995118568996,0.03359075274990054
27.734871738040287,0.013206238041936456,0.0336781017166065
30.778843148958835,0.013623379455683402,0.03368700953553065
34.156898021232664,0.01388557631384172,0.033688802023202964
37.90570284875552,0.013992861579771617,0.033765794993619445
42.065948364660635,0.013950720780358514,0.03399715523748287
46.68279121162346,0.013769372182022208,0.03444417800008937
51.80634408658257,0.013462831685907522,0.03513896282412541
57.49221968006779,0.01304785444652463,0.03607998077334471
63.8021343142265,0.012542845518394023,0.03723553494056213
70.80457783163119,0.011966822622719368,0.038553027424746575
78.57555700605558,0.011338497671596066,0.0399702689795327
87.19942054443925,0.01067552295307985,0.041425488330947675
96.76977463487759,0.009993925973055975,0.04286429491877685
107.39049897828905,0.009307736623955625,0.04424337181601035
119.17687433209433,0.008628793651726484,0.04553153414834518
132.25683380462948,0.007966705484318276,0.04670903420097138
146.7723514822441,0.0073289336566390185,0.047765901838810174
162.88098346169014,0.006720964886001696,0.048699902345478024
180.75757801466406,0.006146539399808708,0.04951448924123508
200.59617344717336,0.005607907244775799,0.05021696747846279
222.61210425370965,0.0051060898606551525,0.050816967422468634
247.04433842709872,0.004641130185403268,0.05132525482308465
274.15807129394165,0.004212320225238627,0.05175285696752454
304.24760402997055,0.003818399896125286,0.0521104617532962
337.6395380996514,0.003457724793854137,0.05240803754546444
374.69632029350714,0.003128403342527998,0.05265462198090142
415.8201768421369,0.0028284056008109817,0.05285823334006401
461.4574793090707,0.002555647038171579,0.053025865898138916
512.1035896512623,0.0023080510203330362,0.05316353894254234
568.3082370370716,0.0020835937470653687,0.053276376814029906
630.6814847834339,0.0018803351225965804,0.05336870385820508
699.9003521792881,0.0016964386314734861,0.05344414339632301
776.7161630706536,0.0015301828287268278,0.05350571379351104
861.9627009712639,0.0013799665909340355,0.05355591758598232
956.5652592169525,0.0012443098488158046,0.053596821633738634
1061.5506843970738,0.0011218511496373206,0.053630127595760795
1178.0585220775965,0.0010113430845051401,0.05365723285975099
1307.3533857951288,0.0009116463600194565,0.05367928254379749
1450.8386835789192,0.000821723090067791,0.05369721343518951
1610.0718509929065,0.0007406297245155262,0.053711790824940146
1786.7812560421874,0.0006675099095270686,0.05372363919436933
1982.8849594351113,0.0006015874820842616,0.0537332676529056
2200.5115338310698,0.0005421597326702403,0.05374109094100511
2442.0231680525826,0.0004885910197705357,0.053747446715957575
2710.041307042465,0.00044030678349879705,0.05375260974182458
3007.475105870217,0.00039678797985248,0.05375680351379204
3337.553006636627,0.0003575659391639177,0.0537602097648305
3703.8577810226216,0.0003222176401719671,0.053762976229912406
4110.365418845124,0.0002903613832310006,0.05376522298019041
4561.488284729238,0.00026165284131744797,0.05376704758593086
5062.123011332681,0.00023578146481062037,0.05376852932174332
5617.703648971452,0.0002124672148637862,0.053769732589755675
6234.260648549263,0.00019145760006734439,0.05377070970485481
6918.486318011103,0.0001725249916915398,0.0537715031600061
7677.80746280557,0.00015546419383198626,0.05377214746813097
8520.465998819702,0.00014009024608870168,0.053772670659315173
9455.608412784362,0.00012623643786285982,0.053773095497595534
10493.385041182417,0.00011375251486743515,0.05377344046968241
11645.060245265304,0.00010250305995895168,0.05377372058825566
12923.134678052123,9.236603186813492e-05,0.053773948044537605
14341.480970437791,8.323144681234207e-05,0.05377413273837602
15915.494309189533,7.500018929740794e-05,0.053774282708797756
