tau,gamma,sigma_gamma
1.5915494309189534e-05,-0.0056369687195230375,0.0020479264364702174
1.7662259541255212e-05,-0.005965183039101953,0.001981303332448689
1.9600736618185914e-05,-0.00628235106098023,0.0019084017225609318
2.175196639354731e-05,-0.006582614736208476,0.0018294416431715347
2.4139299007110626e-05,-0.006859674698355703,0.0017448632756797572
2.6788647334778468e-05,-0.007106909518278307,0.0016553639748314432
2.972876825527301e-05,-0.007317525225054907,0.0015619362972221836
3.2991574786545186e-05,-0.007484732974550962,0.0014659064152083986
3.661248247993406e-05,-0.007601950876999478,0.0013689711342314591
4.0630793831950074e-05,-0.0076630240798597,0.0012732285530435517
4.509012488621082e-05,-0.007662455373045886,0.001181190307292675
5.0038878656004554e-05,-0.007595636985067667,0.0010957500232738763
5.55307705061618e-05,-0.007459073018122608,0.001020063083098575
6.162541119689893e-05,-0.007250581265097318,0.000957276981960855
6.838895391817905e-05,-0.006969463075382737,0.0009100698477974723
7.58948123377093e-05,-0.006616630566066411,0.0008800494134380756
8.422445745649861e-05,-0.006194681838964291,0.0008672243696417511
9.34683019213017e-05,-0.005707916934695221,0.0008698421563185563
0.00010372668139256173,-0.005162289946102957,0.00088472862743406
0.00011511094361993503,-0.004565295881542735,0.0009079585152355367
0.00012774465704657218,-0.003925794321861072,0.0009355331356033159
0.00014176495206073746,-0.003253775425928602,0.0009638472553393398
0.00015732400945314112,-0.0025600771633064005,0.0009899135562758453
0.0001745907122361798,-0.0018560655468555162,0.001011417871312851
0.00019375247875446226,-0.001153291884791196,0.0010266905779628887
0.00021501729698379145,-0.00046314249681408265,0.001034653265586493
0.00023861598209953821,0.00020350317114274305,0.0010347725410545156
0.0002648046818187808,0.0008365905865828846,0.001027035382147769
0.00029386765670999645,0.0014271703090461205,0.0010119511993976404
0.0003261203656486841,0.0019676285608337916,0.0009905805217290664
0.00036191288990944495,0.002451859378673052,0.0009645849626217259
0.00040163373306071395,0.0028753729193105697,0.000936283789970892
0.0004457140379074271,0.0032353380779769902,0.0009086846816990943
0.0004946322662536722,0.0035305611129663045,0.0008854283740622899
0.0005489193922809734,0.003761405213894592,0.0008705598625660621
0.0006091646659128077,0.003929658701605578,0.0008680512229531403
0.0006760220087227636,0.004038361649881975,0.0008811089277747547
0.0007502171118095905,0.004091602078173388,0.0009114905140583278
0.0008325553126817477,0.004094293448584436,0.0009591626921061047
0.0009239303366497019,0.004051945038202415,0.0010224734986952365
0.001025333997607853,0.003970435931321632,0.001098695589878013
0.0011378669635014843,0.0038558020083870534,0.001184638328016809
0.0012627507033305964,0.0037140435495911575,0.0012771141242864435
0.0014013407453672294,0.0035509590828494766,0.0013732085246003225
0.0015551413904952365,0.003372009047362904,0.0014703989390015928
0.0017258220403758298,0.003182210858847727,0.0015665842238697409
0.001915235317670051,0.002986065169594189,0.0016600705910188786
0.002125437175000907,0.002787511603674313,0.001749539342949104
0.002358709210924279,0.0025899110693169067,0.0018340084780203104
0.0026175834351333674,0.0023960509285550925,0.001912793093476531
0.0029048697517061414,0.0022081688315055865,0.001985466350222152
0.0032236864587078034,0.0020279908682269143,0.0020518216088835322
0.003577494095200777,0.0018567798071327055,0.0021118360628894785
0.00397013300304851,0.0016953895173150296,0.002165636210795925
0.004405865011221041,0.001544322151010448,0.0022134655751009386
0.0048894196950571515,0.0014037852317360707,0.0022556550954985445
0.0054260457125960265,0.0012737463992921428,0.0022925965811182933
0.006021567775199456,0.0011539841597518145,0.0023247195093662352
0.006682449870842083,0.0010441335420586064,0.002352471329158681
0.007415865426315531,0.000943726049005467,0.002376301284978613
0.008229775169909635,0.0008522236953602286,0.002396647643267552
0.009133013539717303,0.0007690472446861699,0.0024139280872756672
0.01013538457546652,0.0006935989909729713,0.0024285329585708986
0.011247768334720383,0.0006252805886797332,0.002440820966215809
0.0124822389885206,0.0005635065256487013,0.002451116957577228
0.013852195878322836,0.0005077138697119205,0.002459711344435173
0.015372508956757782,0.0004573689141686198,0.0024668607993337814
0.01705968019087887,0.0004119713114885456,0.00247278987400522
0.018932022679819402,0.0003710562290952877,0.0024776932382514654
0.021009859431059548,0.0003341949946935913,0.0024817382885538833
0.02331574395288505,0.00030099462826843745,0.002485067926539976
0.02587470505741886,0.00027109658874722824,0.002487803355049858
0.028714518531396612,0.0002441749989018397,0.0024900467818154905
0.0318660086234881,0.00021993455452179412,0.0024918839565913247
0.03536338262060454,0.00019810827426110667,0.0024933864966529638
0.039244602144791176,0.00017845520507334513,0.0024946139781888907
0.043551795200880566,0.0001607581644503136,0.0024956157879019586
0.04833171344740451,0.00014482157405443675,0.0024964327409637294
0.05363623965413002,0.00013046941887398294,0.002497098479240493
0.05952295085432696,0.00011754335075709861,0.002497640668318199
0.06605574330440243,0.00010590094413980586,0.002498082014088156
0.07330552603441562,9.541410409745683e-05,0.0024984411201908786
0.08135099051749288,8.596762174990379e-05,0.002498733206999689
0.09027946481238244,7.745786889026168e-05,0.002498970711485076
0.10018786145028723,6.979162195755396e-05,0.0024991637855547137
0.11118372935464306,6.288500471723115e-05,0.002499320708541483
0.1233864212117193,5.6662538929552644e-05,0.0024994482275698233
0.13692838896305695,5.105629263429121e-05,0.0024995518376704612
0.15195662148143568,4.600511628696162e-05,0.002499636011795024
0.16863424003536756,4.145395772427846e-05,0.0024997043893355956
0.18714226885980173,3.7353247731587095e-05,0.0024997599303901814
0.20768160005138378,3.365834877854234e-05,0.002499805041830219
0.23047517411587662,3.0329060248296858e-05,0.002499841680209799
0.2557703998361011,2.7329174191559298e-05,0.0024998714356927495
0.283841839726427,2.462607628156199e-05,0.0024998956004460846
0.31499419022259767,2.219038722721533e-05,0.0024999152243391446
0.34956558895482687,1.9995640421295504e-05,0.0024999311602805076
0.3879312850023754,1.8017992062488718e-05,0.0024999441011042877
0.43050771196772913,1.6235960399546846e-05,0.0024999546095701318
0.4777570080808367,1.4630191108143918e-05,0.0024999631427552664
0.5301920323960712,1.3183246131561502e-05,0.002499970071882055
0.58838193152933,1.1879413600025525e-05,0.0024999756984319926
0.6529583173584296,1.0704536694890892e-05,0.0024999802672395154
0.7246221227415434,9.645859546888188e-06,0.0024999839771302572
0.8041512096678427,8.691888455826292e-06,0.002499986989563307
0.892408812421676,7.832266895544113e-06,0.002499989435651348
0.9903529074050875,7.057662925141631e-06,0.0024999914218627084
1.0990466113217496,6.35966776790322e-06,0.0024999930346525537
1.2196697205875398,5.730704444821555e-06,0.0024999943442241246
1.353531517220237,5.1639454619535375e-06,0.002499995407583338
1.5020849802075775,4.6532386514818985e-06,0.0024999962710194135
1.6669425566084373,4.193040356615289e-06,0.0024999969721193394
1.849893663571735,3.778355231470626e-06,0.002499997541403733
2.0529241112456025,3.4046819998419052e-06,0.0024999980036552343
2.278237657399342,3.0679645821451753e-06,0.00249999837899721
2.528279927718911,2.764548058618883e-06,0.0024999986837696843
2.8057649614145945,2.4911389897349625e-06,0.0024999989312406105
3.1137046702753675,2.2447696623523813e-06,0.0024999991321834306
3.455441530928017,2.0227658729617367e-06,0.0024999992953460603
3.8346848651533194,1.8227178979149874e-06,0.002499999427831701
4.255551102057486,1.642454335236861e-06,0.0024999995354080635
4.72260845911744,1.4800185338657986e-06,0.0024999996227584526
5.240926527082348,1.3336473543165166e-06,0.0024999996936856473
5.816131296941876,1.20175203010599e-06,0.0024999997512774514
6.45446622624163,1.0829009221189556e-06,0.0024999997980411186
7.162860007579055,9.758039786594226e-07,0.0024999998360125003
7.949001774861049,8.792987324654906e-07,0.00249999986684468
8.821424563636043,7.923376826603716e-07,0.0024999998918799364
9.789597931405872,7.139769246540094e-07,0.002499999912208179
10.864030743248122,6.433659045623338e-07,0.002499999928714399
12.056385238417104,5.797381869217531e-07,0.0024999999421171947
13.379603616039038,5.224031354789394e-07,0.0024999999530000575
14.84804851390331,4.7073841674920193e-07,0.0024999999618367744
16.477658905151753,4.241832449695498e-07,0.0024999999690120517
18.28612310501873,3.8223229512094727e-07,0.002499999974838266
20.29307076549301,3.4443021794707205e-07,0.0024999999795690614
22.520285941872707,3.1036669743170075e-07,0.0024999999834103945
24.99194354390693,2.796719970854737e-07,0.0024999999865294976
27.734871738040287,2.520129466989119e-07,0.0024999999890621604
30.778843148958835,2.270893259998153e-07,0.002499999991118644
34.156898021232664,2.0463060596146633e-07,0.0024999999927884766
37.90570284875552,1.843930123903718e-07,0.0024999999941443547
42.065948364660635,1.6615687992040692e-07,0.002499999995245307
46.68279121162346,1.4972426769256576e-07,0.002499999996139263
51.80634408658257,1.3491681083996505e-07,0.0024999999968651414
57.49221968006779,1.2157378445729965e-07,0.002499999997454543
63.8021343142265,1.09550359040357e-07,0.0024999999979331286
70.80457783163119,9.871602845951232e-08,0.0024999999983217327
78.57555700605558,8.89531934038606e-08,0.002499999998637273
87.19942054443925,8.015588492022162e-08,0.0024999999988934867
96.76977463487759,7.222861419184916e-08,0.0024999999991015282
107.39049897828905,6.508533607196332e-08,0.002499999999270455
119.17687433209433,5.8648515121953235e-08,0.0024999999994076206
132.25683380462948,5.284828401672061e-08,0.0024999999995189972
146.7723514822441,4.762168518220671e-08,0.002499999999609433
162.88098346169014,4.2911987433597185e-08,0.0024999999996828657
180.75757801466406,3.866807019677065e-08,0.002499999999742492
200.59617344717336,3.48438686291232e-08,0.0024999999997909073
222.61210425370965,3.1397873616940567e-08,0.00249999999983022
247.04433842709872,2.8292681222115684e-08,0.0024999999998621416
274.15807129394165,2.5494586687768053e-08,0.002499999999888061
304.24760402997055,2.2973218595969046e-08,0.0024999999999091075
337.6395380996514,2.0701209206597806e-08,0.0024999999999261967
374.69632029350714,1.865389739908807e-08,0.0024999999999400727
415.8201768421369,1.6809060992691123e-08,0.00249999999995134
461.4574793090707,1.5146675539778888e-08,0.0024999999999604887
512.1035896512623,1.3648696974048318e-08,0.0024999999999679176
568.3082370370716,1.2298865754421961e-08,0.0024999999999739497
630.6814847834339,1.1082530378759937e-08,0.0024999999999788473
699.9003521792881,9.986488351743723e-09,0.0024999999999828246
776.7161630706536,8.998842880745602e-09,0.0024999999999860537
861.9627009712639,8.10887374421566e-09,0.0024999999999886758
956.5652592169525,7.306920930949555e-09,0.002499999999990805
1061.5506843970738,6.5842797872202526e-09,0.002499999999992534
1178.0585220775965,5.933106533666853e-09,0.0024999999999939376
1307.3533857951288,5.346333126391408e-09,0.0024999999999950773
1450.8386835789192,4.817590538137226e-09,0.002499999999996003
1610.0718509929065,4.341139626818642e-09,0.0024999999999967544
1786.7812560421874,3.9118088410276794e-09,0.0024999999999973646
1982.8849594351113,3.524938086351621e-09,0.0024999999999978603
2200.5115338310698,3.1763281432097266e-09,0.0024999999999982623
2442.0231680525826,2.862195087173556e-09,0.0024999999999985893
2710.041307042465,2.57912921703433e-09,0.0024999999999988547
3007.475105870217,2.3240580448096097e-09,0.00249999999999907
3337.553006636627,2.0942129459706705e-09,0.0024999999999992446
3703.8577810226216,1.8870991079013342e-09,0.002499999999999387
4110.365418845124,1.7004684503998806e-09,0.002499999999999502
4561.488284729238,1.5322952242933184e-09,0.002499999999999596
5062.123011332681,1.3807540233045633e-09,0.0024999999999996718
5617.703648971452,1.2441999705056993e-09,0.0024999999999997333
6234.260648549263,1.1211508642947644e-09,0.0024999999999997836
6918.486318011103,1.0102710901029833e-09,0.0024999999999998244
7677.80746280557,9.103571232047373e-10,0.0024999999999998574
8520.465998819702,8.203244652731051e-10,0.0024999999999998843
9455.608412784362,7.391958728863228e-10,0.002499999999999906
10493.385041182417,6.660907288574769e-10,0.0024999999999999237
11645.060245265304,6.002155630533233e-10,0.002499999999999938
12923.134678052123,5.40855339360687e-10,0.0024999999999999497
14341.480970437791,4.873657442247267e-10,0.0024999999999999593
15915.494309189533,4.391661807006329e-10,0.0024999999999999667
