tau,gamma,sigma_gamma
1.5915494309189534e-05,-0.0014001910908839632,0.05787225429310606
1.7662259541255212e-05,-0.0015423344496834942,0.057593859500709776
1.9600736618185914e-05,-0.0016962619256280175,0.057259159425800225
2.175196639354731e-05,-0.00186209747238446,0.05685871093915119
2.4139299007110626e-05,-0.0020396683132497782,0.05638232544224257
2.6788647334778468e-05,-0.0022284128028941213,0.05581938612302726
2.972876825527301e-05,-0.0024272769687246087,0.055159354780986734
3.2991574786545186e-05,-0.002634603542936484,0.05439251181225379
3.661248247993406e-05,-0.0028480197988093323,0.053510964847392234
4.0630793831950074e-05,-0.003064333353265209,0.0525099416915369
4.509012488621082e-05,-0.003279448014760362,0.05138934694975926
5.0038878656004554e-05,-0.0034883143172051633,0.05015550400991245
5.55307705061618e-05,-0.0036849310331759115,0.0488229203738822
6.162541119689893e-05,-0.0038624140756582433,0.047415802764268135
6.838895391817905e-05,-0.004013147173552642,0.045968914796126525
7.58948123377093e-05,-0.00412902409666288,0.04452723842698514
8.422445745649861e-05,-0.004201784872768925,0.04314383045083147
9.34683019213017e-05,-0.004223438684963906,0.041875367483610766
0.00010372668139256173,-0.0041867547813546485,0.04077529280709875
0.00011511094361993503,-0.0040857910921040935,0.039885299551869945
0.00012774465704657218,-0.003916420019818088,0.039226939265208836
0.00014176495206073746,-0.003676803860517392,0.038795884856911156
0.00015732400945314112,-0.003367770133899627,0.03856110672525776
0.0001745907122361798,-0.002993040819447188,0.03846973508851519
0.00019375247875446226,-0.0025592793510849574,0.0384563860169238
0.00021501729698379145,-0.0020759344904425926,0.03845436569746656
0.00023861598209953821,-0.0015548792208960652,0.038406042631920385
0.0002648046818187808,-0.001009863226592794,0.03827049306044023
0.00029386765670999645,-0.00045581667117608005,0.038027580742578886
0.0003261203656486841,9.194166432539993e-05,0.037678443857323725
0.00036191288990944495,0.0006185292550599634,0.03724283234957787
0.00040163373306071395,0.0011102923851251732,0.036753993510235526
0.0004457140379074271,0.001555505291652953,0.03625199013561233
0.0004946322662536722,0.0019449251289930091,0.03577651939318077
0.0005489193922809734,0.002272166761290664,0.03536043390912975
0.0006091646659128077,0.002533878611370236,0.03502511775567516
0.0006760220087227636,0.002729718364050248,0.034778516933758816
0.0007502171118095905,0.0028621433884644526,0.03461598250137515
0.0008325553126817477,0.002936043897329107,0.03452336380328536
0.0009239303366497019,0.0029582562364757377,0.034481286328421554
0.001025333997607853,0.002936998972044976,0.0344694497733455
0.0011378669635014843,0.002881275755691676,0.03447005115465341
0.0012627507033305964,0.002800286784515568,0.03446988214537077
0.0014013407453672294,0.0027028857324753646,0.03446106826702943
0.0015551413904952365,0.0025971121141541726,0.034440699689290186
0.0017258220403758298,0.0024898209591270367,0.034409733950568386
0.001915235317670051,0.0023864231787154837,0.03437156536240375
0.002125437175000907,0.0022907417501580023,0.0343305986956865
0.002358709210924279,0.002204981353754751,0.03429107070519412
0.0026175834351333674,0.0021298027628691464,0.03425625586076478
0.0029048697517061414,0.0020644883443709603,0.03422808981515053
0.0032236864587078034,0.002007181573942884,0.034207160011588675
0.003577494095200777,0.0019551814712733626,0.034192958057670954
0.00397013300304851,0.0019052721703713064,0.034184267533219084
0.004405865011221041,0.0018540682376367793,0.03417957061900278
0.0048894196950571515,0.0017983575696025426,0.03417738780733112
0.0054260457125960265,0.001735425471085779,0.03417650455547275
0.006021567775199456,0.001663345585232881,0.034176075743657
0.006682449870842083,0.0015812255207984232,0.03417562582591209
0.007415865426315531,0.0014893971636152485,0.034174977075349604
0.008229775169909635,0.001389543701752225,0.03417414175199258
0.009133013539717303,0.0012847573357269069,0.03417320991433312
0.01013538457546652,0.0011795235399934276,0.0341722567370352
0.011247768334720383,0.0010796296833514617,0.034171284320174584
0.0124822389885206,0.0009919979177488753,0.03417020439981472
0.013852195878322836,0.000924444617862501,0.03416886041318071
0.015372508956757782,0.0008853713794818429,0.034167080114607916
0.01705968019087887,0.0008833956895751131,0.034164743853089326
0.018932022679819402,0.0009269328136228145,0.034161849742242005
0.021009859431059548,0.0010237440624756612,0.034158556541778906
0.02331574395288505,0.0011804701630500221,0.034155188992181305
0.02587470505741886,0.0014021716446776782,0.034152198469500634
0.028714518531396612,0.001691900593814711,0.03415008273390056
0.0318660086234881,0.0020503294422107585,0.034149279694491504
0.03536338262060454,0.002475462295604234,0.03415005847342293
0.039244602144791176,0.0029624524293536602,0.03415243401596284
0.043551795200880566,0.0035035458540716774,0.03415612778424645
0.04833171344740451,0.004088165329093734,0.03416058730615425
0.05363623965413002,0.004703142087450894,0.03416506398094809
0.05952295085432696,0.0053330942107877,0.03416873514630768
0.06605574330440243,0.005960941574543377,0.03417084654437691
0.07330552603441562,0.006568538192280329,0.03417084738794329
0.08135099051749288,0.0071373942951104535,0.03416849277296514
0.09027946481238244,0.007649453256879779,0.03416389590566228
0.10018786145028723,0.008087883128642493,0.034157522984610646
0.11118372935464306,0.008437839576466159,0.034150133830710645
0.1233864212117193,0.008687156768511346,0.03414267939755798
0.13692838896305695,0.0088269253851949,0.03413617221912797
0.15195662148143568,0.008851922375811132,0.034131547892540255
0.16863424003536756,0.00876086508872597,0.034129535682823675
0.18714226885980173,0.008556472490685144,0.034130555003310976
0.20768160005138378,0.008245327719143903,0.03413465201721071
0.23047517411587662,0.007837548401130438,0.03414148650280944
0.2557703998361011,0.007346283164800238,0.034150372937293776
0.283841839726427,0.006787063693066399,0.03416037160808145
0.31499419022259767,0.0061770507078683515,0.03417041663915851
0.34956558895482687,0.005534218744949676,0.03417946025476421
0.3879312850023754,0.004876527995472312,0.03418660879847578
0.43050771196772913,0.004221131612358296,0.0341912277060835
0.4777570080808367,0.0035836637386429306,0.03419300002966119
0.5301920323960712,0.0029776474136915723,0.03419193465811022
0.58838193152933,0.002414052985605643,0.034188333016228104
0.6529583173584296,0.0019010274106685604,0.034182733040781704
0.7246221227415434,0.0014438036516306232,0.03417585337322148
0.8041512096678427,0.0010447881029439368,0.03416855720822483
0.892408812421676,0.000703813313322971,0.03416184447671467
0.9903529074050875,0.0004185338628455578,0.03415686563538161
1.0990466113217496,0.00018493554913446693,0.03415493460752081
1.2196697205875398,-2.0776480398028777e-06,0.03415750742614917
1.353531517220237,-0.00014805786128196203,0.03416609145733287
1.5020849802075775,-0.00025838921743180415,0.034182060687050354
1.6669425566084373,-0.0003377047694290789,0.0342063758001998
1.849893663571735,-0.0003893810564953298,0.03423924077922986
2.0529241112456025,-0.00041514216872615736,0.03427976421094031
2.278237657399342,-0.00041479892791802586,0.03432572433758875
2.528279927718911,-0.0003861412732895671,0.03437355189587516
2.8057649614145945,-0.0003249934989099835,0.0344186350754705
3.1137046702753675,-0.00022543299162450562,0.03445601158052848
3.455441530928017,-8.016393141999404e-05,0.034481444468990444
3.8346848651533194,0.00011897160254179093,0.03449278742084138
4.255551102057486,0.0003803711879260029,0.0344914420415623
4.72260845911744,0.0007119720198749946,0.03448360946902239
5.240926527082348,0.0011205135223427717,0.034480961829222875
5.816131296941876,0.0016108078200402012,0.03450033744469245
6.45446622624163,0.0021850662844098588,0.03456214080993525
7.162860007579055,0.0028423309361101027,0.034687348778730746
7.949001774861049,0.003578057126993158,0.03489339973921092
8.821424563636043,0.004383888195947767,0.03518970244232422
9.789597931405872,0.005247653419090943,0.03557387086639864
10.864030743248122,0.006153607575896838,0.03602985338634295
12.056385238417104,0.007082914271183724,0.03652876347637713
13.379603616039038,0.008014356737066623,0.03703254091309992
14.84804851390331,0.008925240652863506,0.03749985963127129
16.477658905151753,0.009792435451749569,0.03789321979893853
18.28612310501873,0.01059348574172353,0.0381860092181204
20.29307076549301,0.011307714899619037,0.03836840604499097
22.520285941872707,0.011917240239179325,0.038451174153112395
24.99194354390693,0.01240782431490093,0.038466584396294363
27.734871738040287,0.012769499836578175,0.038465899601796964
30.778843148958835,0.012996925201467516,0.03851321115115446
34.156898021232664,0.013089451690611206,0.03867606698864559
37.90570284875552,0.013050909111239663,0.03901431378930307
42.065948364660635,0.012889141006694476,0.039569581280207405
46.68279121162346,0.012615340615346497,0.04035820292812661
51.80634408658257,0.012243252322363712,0.04136952871571925
57.49221968006779,0.011788309194432725,0.04256973576049353
63.8021343142265,0.01126677524386632,0.04390939653857475
70.80457783163119,0.010694952339118356,0.04533223387479292
78.57555700605558,0.010088497992696533,0.046782864290908804
87.19942054443925,0.009461883894387986,0.0482123376343437
96.76977463487759,0.008828008337529926,0.049581248519411474
107.39049897828905,0.008197960607586156,0.05086079084780492
119.17687433209433,0.0075809233931605855,0.05203235009685748
132.25683380462948,0.006984191087131069,0.053086216385279376
146.7723514822441,0.006413277563521648,0.05401988624871
162.88098346169014,0.005872086214019466,0.05483628347734349
180.75757801466406,0.005363116939262413,0.05554210654317933
200.59617344717336,0.004887688504609014,0.05614641415204504
222.61210425370965,0.004446159303058836,0.05665949183684832
247.04433842709872,0.0040381343752590206,0.057091997473083855
274.15807129394165,0.0036626509751838954,0.05745435717797673
304.24760402997055,0.003318338709107767,0.05775637035747264
337.6395380996514,0.0030035531711630195,0.058006979366938945
374.69632029350714,0.00271648405044935,0.05821416180086582
415.8201768421369,0.002455239985180657,0.05838490910448858
461.4574793090707,0.0022179131299377517,0.05852526207938594
512.1035896512623,0.0020026266371798752,0.058640380694918254
568.3082370370716,0.0018075681778930497,0.058734631718817605
630.6814847834339,0.0016310123595248542,0.058811682734845286
699.9003521792881,0.0014713345351627036,0.05887459506925315
776.7161630706536,0.0013270181021554732,0.0589259110928042
861.9627009712639,0.0011966570037475204,0.05896773346115147
956.5652592169525,0.001078954798357277,0.05900179528060998
1061.5506843970738,0.0009727213593929054,0.05902952110452394
1178.0585220775965,0.0008768680167713318,0.059052079218341415
1307.3533857951288,0.0007904017471557817,0.059070425971216124
1450.8386835789192,0.0007124188581431217,0.059085343043299224
1610.0718509929065,0.0006420984859087006,0.05909746856251492
1786.7812560421874,0.0005786961297785817,0.05910732294572359
1982.8849594351113,0.0005215373749787785,0.05911533026597488
2200.5115338310698,0.00047001190131059766,0.05912183585906794
2442.0231680525826,0.00042356783646657896,0.05912712079072612
2710.041307042465,0.00038170648468467726,0.059131413717326935
3007.475105870217,0.00034397744170785365,0.05913490059203224
3337.553006636627,0.00030997409344500696,0.05913773259599837
3703.8577810226216,0.00027932948668540414,0.059140032611495696
4110.365418845124,0.00025171255446522505,0.05914190049988328
4561.488284729238,0.00022682467529262288,0.05914341740172499
5062.123011332681,0.00020439654371677096,0.05914464923798844
5617.703648971452,0.00018418532916716674,0.05914564955928706
6234.260648549263,0.00016597210022013123,0.05914646186359573
6918.486318011103,0.0001495594921997277,0.05914712148095632
7677.80746280557,0.00013476959709669286,0.05914765710564863
8520.465998819702,0.00012144205605345464,0.05914809204148979
9455.608412784362,0.00010943233601955676,0.059148445213790216
10493.385041182417,9.861017356311152e-05,0.059148731991568546
11645.060245265304,8.885817018556019e-05,0.059148964855522145
12923.134678052123,8.007052479979379e-05,0.059149153940636044
14341.480970437791,7.215189027752505e-05,0.059149307476922944
15915.494309189533,6.501634214058326e-05,0.05914943214739614
