tau,gamma
1e-07,0.0016190752922292998
1.1097524964120721e-07,0.003555039558644826
1.2315506032928263e-07,0.0064794685758732635
1.3667163564620074e-07,0.00987289569191005
1.5167168884709241e-07,0.012742361042483693
1.6831803533309585e-07,0.01425050638696727
1.867913599020781e-07,0.014287096093407134
2.0729217795953698e-07,0.013323322937020946
2.300430119772917e-07,0.011759254879453911
2.5529080682395163e-07,0.009616364391312021
2.833096101839324e-07,0.006863401150608439
3.1440354715915e-07,0.003767483437558978
3.489101213406774e-07,0.0007625194581550135
3.872038781812557e-07,-0.0018846621857550989
4.2970047043208437e-07,-0.0041186087057918
4.768611697714474e-07,-0.005890057582356337
5.291978735958437e-07,-0.0070713379761107
5.872786613189477e-07,-0.007577668754574776
6.517339604882421e-07,-0.0074597977776129165
7.232633896483533e-07,-0.006841910704498617
8.026433522257174e-07,-0.005831008812175312
8.907354638610439e-07,-0.004519154350880068
9.884959046625586e-07,-0.003028205105016927
1.096985797892384e-06,-0.0015042278311085554
1.217382727739662e-06,-7.194396408221807e-05
1.3509935211980278e-06,0.0011859660019167316
1.499268432786047e-06,0.002213918828573969
1.6638168860761274e-06,0.002971601451610212
1.8464249428955464e-06,0.0034419339130602007
2.049074689815846e-06,0.0036383134217665373
2.2739657523579273e-06,0.003595990656903462
2.523539170434766e-06,0.0033578800180599495
2.800503894183631e-06,0.0029680894175595227
3.107866187782014e-06,0.0024710937150501052
3.4489622604057595e-06,0.0019086470246762683
3.827494478516315e-06,0.0013145724109489803
4.247571552536894e-06,0.0007128402598940402
4.713753134116729e-06,0.00012014328408396292
5.2310993080562585e-06,-0.00045048608900324027
5.805225516094895e-06,-0.0009872622120358735
6.44236350872137e-06,-0.0014776385344681467
7.149428986597577e-06,-0.001905949502211994
7.934096665797492e-06,-0.002251754418655507
8.804883581643465e-06,-0.002490133289744712
9.771241535346501e-06,-0.0025938208790649824
1.0843659686896109e-05,-0.002536332622711231
1.2033778407775906e-05,-0.002295607214137745
1.3354515629298974e-05,-0.0018579860304793056
1.48202070579886e-05,-0.0012220482382406478
1.6446761779946626e-05,-0.00040147799299135556
1.8251834943190462e-05,0.0005736486110068774
2.0255019392306664e-05,0.0016573536508396448
2.2478058335487252e-05,0.00279000959996283
2.4945081352303165e-05,0.00390221701646974
2.7682866303920665e-05,0.004920035460299012
3.072112998861759e-05,0.005771033482421917
3.409285069746814e-05,0.006390514531433178
3.783462617131933e-05,0.006727346119150583
4.1987070844439056e-05,0.006748885248051595
4.659525668664687e-05,0.006444623595469789
5.170920242896755e-05,0.005828250058145505
5.7384416483024044e-05,0.004938007758359435
6.368249944718586e-05,0.0038353978194065426
7.067181273927492e-05,0.002602356551203327
7.842822061337681e-05,0.001337129956494013
8.703591361485166e-05,0.00014906092931624932
9.658832241158708e-05,-0.0008474428181400246
0.00010718913192051276,-0.0015395024954336983
0.00011895340673703195,-0.001822703984730805
0.0001320088400831418,-0.0016081108645866714
0.00014649713983072864,-0.0008290840406247311
0.0001625755666443795,0.0005524886551843806
0.00018041864093920718,0.0025409981646156814
0.00020022003718155845,0.005103463291282267
0.0002221946860939524,0.008167988326001198
0.0002465811075822604,0.011624809130964255
0.0002736439997074672,0.015330362265514205
0.00030367711180354605,0.01911454815987357
0.00033700643292719284,0.022791135531574778
0.0003739937302478798,0.026170969259836203
0.0004150404757850477,0.02907727818300556
0.00046059220411451084,0.03136217902127168
0.0005111433483440171,0.032923127780446856
0.0005672426068491978,0.03371801604918798
0.0006294988990221888,0.033777561928555064
0.0006985879746785249,0.03321373724579651
0.0007752597488629464,0.03222332480917127
0.000860346441668451,0.03108591668853913
0.0009547716114208065,0.030156196218981864
0.001059560179277617,0.02985065384100856
0.0011758495540521582,0.030629228271252095
0.0013049019780144017,0.03297271164550236
0.001448118227674533,0.0373568328219715
0.0016070528182616384,0.044224272872879056
0.0017834308769319094,0.05395592412665029
0.0019791668678535573,0.06684291634954659
0.002196385372416547,0.08306110623627103
0.002437444150122222,0.1026495844460316
0.002704959730463137,0.12549484430047894
0.0030018358135755923,0.15132172438246685
0.003331294787934677,0.17969195912890765
0.0036969127071950323,0.21001066049092618
0.00410265810582719,0.24154047196982972
0.004552935074866948,0.27342320029243794
0.00505263106533568,0.3047082779118742
0.005607169938205458,0.33438792641823994
0.006222570836730231,0.3614386631529387
0.006905513520162331,0.38486864693571304
0.007663410868007463,0.4037696756671438
0.008504489341802686,0.41737084832842963
0.009437878277775391,0.42508969505064703
0.010473708979594508,0.42657456895287155
0.011623224686798541,0.4217326006612098
0.01289890261253308,0.41073853844123387
0.014314589375234785,0.3940228739814744
0.015885651294280528,0.372241537298473
0.01762914118095948,0.34623145521258863
0.01956398343517065,0.31695829875745135
0.021711179456945052,0.28546169204394806
0.02409403560239527,0.25280209659678377
0.026738416158399492,0.22001181788647553
0.029673024081888724,0.18805128384651387
0.032929712550971546,0.157771571896449
0.036543830709572546,0.12988371526612916
0.040554607358408275,0.10493604956469249
0.04500557675700498,0.08330058464237615
0.0499450511585514,0.06516940375398741
0.05542664520663107,0.050561494525348846
0.06150985788580504,0.03933933728376961
0.06826071834272393,0.031233913592598035
0.0757525025877192,0.025875673345395596
0.08406652885618333,0.022828680652217076
0.09329304026284696,0.021624924505546986
0.10353218432956637,0.021795907898642622
0.11489510001873086,0.02289923080640845
0.1275051240713013,0.024538377203833377
0.1414991297434576,0.0263748454331922
0.15702901247293774,0.02813254509515971
0.17426333860096507,0.029595194806251814
0.19338917504552322,0.03059824030745823
0.21461411978584058,0.03101723072166494
0.23816855519761607,0.030754926164345803
0.2643081486974108,0.029729333278325307
0.29331662783900486,0.027864576530300614
0.32550885998350565,0.025085983888225645
0.36123426997094304,0.021320056101567997
0.40088063288984643,0.016499252744525274
0.4448782831127585,0.010570842511429169
0.4937047852839004,0.0035085149915611534
0.5478901179593945,-0.004675011968186228
0.6080224261649427,-0.013916282010384258
0.67475440531107,-0.0240921470117986
0.748810385759003,-0.035014959417445715
0.8309941949353403,-0.0464328988204159
0.9221978823334341,-0.05803603611938747
1.0234114021054528,-0.06946807211299275
1.135733358343105,-0.08034310514153399
1.2603829296797273,-0.09026603304291841
1.3987131026472386,-0.09885530563373372
1.552225357427048,-0.10576670760970593
1.7225859653987874,-0.11071627917911357
1.9116440753857036,-0.11349999497280759
2.121451784910632,-0.1140080821008533
2.35428641432242,-0.11223356407295909
2.612675225563332,-0.10827480109375309
2.8994228538828812,-0.10233082802867749
3.2176417502507353,-0.09468847158076006
3.5707859649004625,-0.08570307863585437
3.9626886387014784,-0.07577707393363796
4.397603609302721,-0.06533759000978041
4.880251583654434,-0.054811008797766375
5.415871378079476,-0.04459500079572697
6.010276782070388,-0.0350351084820564
6.669919663030129,-0.026411368950231977
7.401959996915652,-0.01893008798901468
8.214343584919439,-0.012713546756071042
9.115888299750837,-0.007792356558619794
10.11637979766207,-0.004113110128733501
11.226677735108158,-0.0015611534432686729
12.458833642950081,1.856512082461322e-05
13.826221737646593,0.0008136319315304526
15.343684089300131,0.0010392557713180448
17.02769172225898,0.000919824946579982
18.896523396912116,0.00065570048074206
20.970464013232306,0.00039035966068586426
23.27202478960412,0.00019557580833758935
25.826187606826746,8.232786734211867e-05
28.66067616948256,2.899268727499231e-05
31.80625692794119,8.503913309658351e-06
35.297073027306574,2.069892042468449e-06
39.17101490809261,4.169480781029318e-07
43.47013158125035,6.937037734973698e-08
48.241087041653735,9.520093310212905e-09
53.535666774107185,1.0766905491898925e-09
59.411339849650396,1.0029104499925286e-10
65.93188271333541,7.6910011475074e-12
73.16807143427206,4.854451716405105e-13
81.19844993184009,2.5215077628681662e-14
90.11018251665037,1.0776931787786778e-15
100.0,3.7897741366113266e-17
