tau,gamma
1e-07,0.0009951378566608296
1.1097524964120721e-07,0.002198724489213608
1.2315506032928263e-07,0.004045598725788578
1.3667163564620074e-07,0.006252447179762512
1.5167168884709241e-07,0.008237603409003572
1.6831803533309585e-07,0.009476028547521968
1.867913599020781e-07,0.00983839095213535
2.0729217795953698e-07,0.00953238050021519
2.300430119772917e-07,0.008749830155200587
2.5529080682395163e-07,0.007491113741632655
2.833096101839324e-07,0.005736393574612708
3.1440354715915e-07,0.0036380458599923064
3.489101213406774e-07,0.001454221985260354
3.872038781812557e-07,-0.0006311703965743641
4.2970047043208437e-07,-0.002537785625406541
4.768611697714474e-07,-0.004185306176754075
5.291978735958437e-07,-0.005452689958444741
5.872786613189477e-07,-0.006246340185191144
6.517339604882421e-07,-0.006553365536088662
7.232633896483533e-07,-0.0064125015065344465
8.026433522257174e-07,-0.005868415927510871
8.907354638610439e-07,-0.004973265836650297
9.884959046625586e-07,-0.0038093643538738577
1.096985797892384e-06,-0.002484410047862726
1.217382727739662e-06,-0.001104836676379484
1.3509935211980278e-06,0.0002384842492398505
1.499268432786047e-06,0.0014661169722393287
1.6638168860761274e-06,0.0025073814253773682
1.8464249428955464e-06,0.003307591644220427
2.049074689815846e-06,0.0038343444255604514
2.2739657523579273e-06,0.004074893881911963
2.523539170434766e-06,0.004030008863101731
2.800503894183631e-06,0.003711352446387204
3.107866187782014e-06,0.0031414628223273137
3.4489622604057595e-06,0.002352329989853605
3.827494478516315e-06,0.001382691043045982
4.247571552536894e-06,0.0002768071461677298
4.713753134116729e-06,-0.0009147686365261399
5.2310993080562585e-06,-0.0021344011910312322
5.805225516094895e-06,-0.003317908680156665
6.44236350872137e-06,-0.004396124797373614
7.149428986597577e-06,-0.0052971392252503845
7.934096665797492e-06,-0.005949656470773717
8.804883581643465e-06,-0.006287898012124828
9.771241535346501e-06,-0.0062576275729285015
1.0843659686896109e-05,-0.005822391695846617
1.2033778407775906e-05,-0.0049692374011126045
1.3354515629298974e-05,-0.0037132856319042596
1.48202070579886e-05,-0.0021004838856478352
1.6446761779946626e-05,-0.00020779777633859507
1.8251834943190462e-05,0.0018595837689400036
2.0255019392306664e-05,0.003973978929141311
2.2478058335487252e-05,0.005993551873476989
2.4945081352303165e-05,0.007772635482266108
2.7682866303920665e-05,0.009173240328239535
3.072112998861759e-05,0.010076714929966714
3.409285069746814e-05,0.010394430916187894
3.783462617131933e-05,0.01007652251932361
4.1987070844439056e-05,0.009117821575935478
4.659525668664687e-05,0.007560458662150665
5.170920242896755e-05,0.0054928654501579825
5.7384416483024044e-05,0.003045277344934275
6.368249944718586e-05,0.00038221438665890213
7.067181273927492e-05,-0.0023074599366194166
7.842822061337681e-05,-0.004822121491201078
8.703591361485166e-05,-0.006959873206966848
9.658832241158708e-05,-0.008531189911895326
0.00010718913192051276,-0.009370998525117916
0.00011895340673703195,-0.009349609839426896
0.0001320088400831418,-0.008381885356892597
0.00014649713983072864,-0.006434159182800082
0.0001625755666443795,-0.0035284384112214935
0.00018041864093920718,0.0002564625851235068
0.00020022003718155845,0.004787011052332527
0.0002221946860939524,0.009880370075245686
0.0002465811075822604,0.015312998764942656
0.0002736439997074672,0.020832281584455093
0.00030367711180354605,0.026170842489919993
0.00033700643292719284,0.03106307043792172
0.0003739937302478798,0.035263260176361604
0.0004150404757850477,0.03856439491277292
0.00046059220411451084,0.04081640443580234
0.0005111433483440171,0.04194232612360715
0.0005672426068491978,0.04195080919949393
0.0006294988990221888,0.04094359672240343
0.0006985879746785249,0.0391170129934876
0.0007752597488629464,0.03675731244744034
0.000860346441668451,0.03423024491569859
0.0009547716114208065,0.03196581185466228
0.001059560179277617,0.03043923395223761
0.0011758495540521582,0.03014889019407315
0.0013049019780144017,0.031591955902815896
0.001448118227674533,0.03523846043169122
0.0016070528182616384,0.04150494453299194
0.0017834308769319094,0.05072903764784483
0.0019791668678535573,0.06314661464571761
0.002196385372416547,0.07887367508051496
0.002437444150122222,0.09789484320337469
0.002704959730463137,0.12005942571515048
0.0030018358135755923,0.14508403976978765
0.003331294787934677,0.17256066140594295
0.0036969127071950323,0.2019701969602299
0.00410265810582719,0.2327013848132393
0.004552935074866948,0.26407186468145954
0.00505263106533568,0.29534367469241574
0.005607169938205458,0.32572447718770514
0.006222570836730231,0.3543495813588086
0.006905513520162331,0.38025111959015057
0.007663410868007463,0.4023388919067021
0.008504489341802686,0.41943365506244834
0.009437878277775391,0.43039159897537826
0.010473708979594508,0.43431590201669235
0.011623224686798541,0.4307786439527211
0.01289890261253308,0.41993972080080677
0.014314589375234785,0.40250197519868613
0.015885651294280528,0.3795336098713499
0.01762914118095948,0.3522463113977303
0.01956398343517065,0.3218226376980177
0.021711179456945052,0.2893393783672127
0.02409403560239527,0.25576903317951977
0.026738416158399492,0.22200985702951323
0.029673024081888724,0.18890703818735535
0.032929712550971546,0.1572531046730655
0.036543830709572546,0.12777071928382866
0.040554607358408275,0.10108585998811609
0.04500557675700498,0.07769858282379702
0.0499450511585514,0.057957572924369
0.05542664520663107,0.04204299881926588
0.06150985788580504,0.029960421658765897
0.06826071834272393,0.02154738054870865
0.0757525025877192,0.016492471704469047
0.08406652885618333,0.01436510424284174
0.09329304026284696,0.014651687254128432
0.10353218432956637,0.01679295944082023
0.11489510001873086,0.0202183369592423
0.1275051240713013,0.024374809405821415
0.1414991297434576,0.028749533978767866
0.15702901247293774,0.03288592583645015
0.17426333860096507,0.03639362667547756
0.19338917504552322,0.03895319419354706
0.21461411978584058,0.04031649000197127
0.23816855519761607,0.04030395248217379
0.2643081486974108,0.038799826815397606
0.29331662783900486,0.03574656271403942
0.32550885998350565,0.031139422109232158
0.36123426997094304,0.025021977949506943
0.40088063288984643,0.01748278044335389
0.4448782831127585,0.008652976783006184
0.4937047852839004,-0.0012955058298874413
0.5478901179593945,-0.012151938185211673
0.6080224261649427,-0.023669626164658248
0.67475440531107,-0.03557022469468043
0.748810385759003,-0.04754985054844118
0.8309941949353403,-0.05928707981849523
0.9221978823334341,-0.07045303469425997
1.0234114021054528,-0.08072344467929277
1.135733358343105,-0.08979226370160101
1.2603829296797273,-0.09738590784280643
1.3987131026472386,-0.10327733844178555
1.552225357427048,-0.10729929514025653
1.7225859653987874,-0.10935519659933358
1.9116440753857036,-0.10942569402879702
2.121451784910632,-0.10756949214466083
2.35428641432242,-0.10391934605264125
2.612675225563332,-0.09867452641814542
2.8994228538828812,-0.09208932863487775
3.2176417502507353,-0.08445703690320969
3.5707859649004625,-0.07609197370436036
3.9626886387014784,-0.0673144264408884
4.397603609302721,-0.058438354344282795
4.880251583654434,-0.049756589702698
5.415871378079476,-0.04152296240495636
6.010276782070388,-0.03394047772298973
6.669919663030129,-0.02716119830523418
7.401959996915652,-0.02128723625691892
8.214343584919439,-0.01636132210653656
9.115888299750837,-0.012358655896636195
10.11637979766207,-0.009202204816719281
11.226677735108158,-0.006793085402549898
12.458833642950081,-0.005019311717831158
13.826221737646593,-0.003737472121680527
15.343684089300131,-0.0027753935280337328
17.02769172225898,-0.0019868541602118014
18.896523396912116,-0.0013108195115926159
20.970464013232306,-0.0007657908264269939
23.27202478960412,-0.00038512556783915563
25.826187606826746,-0.00016378884608791286
28.66067616948256,-5.827639753952978e-05
31.80625692794119,-1.7235970992780084e-05
35.297073027306574,-4.2210953436755205e-06
39.17101490809261,-8.539333685018031e-07
43.47013158125035,-1.4249046612032537e-07
48.241087041653735,-1.9593080892706957e-08
53.535666774107185,-2.2187839448116664e-09
59.411339849650396,-2.068503135180562e-10
65.93188271333541,-1.587153997141364e-11
73.16807143427206,-1.00215400117458e-12
81.19844993184009,-5.206640633261115e-14
90.11018251665037,-2.2256633624963237e-15
100.0,-7.827467573937266e-17
