tau,gamma
1e-07,7.988061249666996e-05
1.1097524964120721e-07,0.00011971986971649301
1.2315506032928263e-07,0.00016688804777240581
1.3667163564620074e-07,0.00021715845222230624
1.5167168884709241e-07,0.00026496005878605806
1.6831803533309585e-07,0.0003048447459506986
1.867913599020781e-07,0.0003330171223546542
2.0729217795953698e-07,0.00034827344939677394
2.300430119772917e-07,0.0003520015192622097
2.5529080682395163e-07,0.00034736965036952894
2.833096101839324e-07,0.000338174385579793
3.1440354715915e-07,0.0003278493108514989
3.489101213406774e-07,0.0003189185111772854
3.872038781812557e-07,0.0003129005540164038
4.2970047043208437e-07,0.0003104955063982242
4.768611697714474e-07,0.00031186075724290674
5.291978735958437e-07,0.0003168471927706929
5.872786613189477e-07,0.0003251499682497024
6.517339604882421e-07,0.00033638307493212116
7.232633896483533e-07,0.00035010735045448477
8.026433522257174e-07,0.0003658401963022616
8.907354638610439e-07,0.00038306600148883607
9.884959046625586e-07,0.00040125694137894204
1.096985797892384e-06,0.0004199067881247744
1.217382727739662e-06,0.0004385755788059943
1.3509935211980278e-06,0.00045694006235754054
1.499268432786047e-06,0.0004748437430185671
1.6638168860761274e-06,0.0004923411908611589
1.8464249428955464e-06,0.0005097340955081377
2.049074689815846e-06,0.0005276010178366778
2.2739657523579273e-06,0.0005468285138482905
2.523539170434766e-06,0.0005686579913152413
2.800503894183631e-06,0.0005947705301217872
3.107866187782014e-06,0.0006274417685644548
3.4489622604057595e-06,0.000669811796693116
3.827494478516315e-06,0.0007263304229898444
4.247571552536894e-06,0.0008034513545376033
4.713753134116729e-06,0.0009106455880217204
5.2310993080562585e-06,0.0010617561024444323
5.805225516094895e-06,0.001276579879381008
6.44236350872137e-06,0.0015822970659003805
7.149428986597577e-06,0.002013969200526038
7.934096665797492e-06,0.0026129011472058455
8.804883581643465e-06,0.003421463729276075
9.771241535346501e-06,0.004473394048083292
1.0843659686896109e-05,0.005779963417845146
1.2033778407775906e-05,0.007314682040598217
1.3354515629298974e-05,0.009001660074101287
1.48202070579886e-05,0.010713973150156722
1.6446761779946626e-05,0.012286943769295643
1.8251834943190462e-05,0.013546701183238615
2.0255019392306664e-05,0.014348091333643372
2.2478058335487252e-05,0.014610938354578735
2.4945081352303165e-05,0.014342853863374446
2.7682866303920665e-05,0.013641388027729346
3.072112998861759e-05,0.012676534819855588
3.409285069746814e-05,0.011662589618248556
3.783462617131933e-05,0.010832373938033477
4.1987070844439056e-05,0.010425211472499134
4.659525668664687e-05,0.010693534010938885
5.170920242896755e-05,0.011923755892255142
5.7384416483024044e-05,0.01445737001713862
6.368249944718586e-05,0.018690502722998253
7.067181273927492e-05,0.02502806344709564
7.842822061337681e-05,0.03377734439306534
8.703591361485166e-05,0.04498946412811131
9.658832241158708e-05,0.05829226916150451
0.00010718913192051276,0.0727900697091348
0.00011895340673703195,0.08710985566692363
0.0001320088400831418,0.09963201084302793
0.00014649713983072864,0.10886243966782429
0.0001625755666443795,0.11382120763622051
0.00018041864093920718,0.11429365099627904
0.00020022003718155845,0.11084418898753653
0.0002221946860939524,0.10460993562477909
0.0002465811075822604,0.09700588111434581
0.0002736439997074672,0.08952080957089908
0.00030367711180354605,0.0837418756978938
0.00033700643292719284,0.08164290270673465
0.0003739937302478798,0.086044774559065
0.0004150404757850477,0.10101819873960968
0.00046059220411451084,0.13185493381310234
0.0005111433483440171,0.18415427724925423
0.0005672426068491978,0.26173418241017454
0.0006294988990221888,0.3636519382798852
0.0006985879746785249,0.48150729083071814
0.0007752597488629464,0.5988462131991006
0.000860346441668451,0.6941189416962738
0.0009547716114208065,0.7469860509887529
0.001059560179277617,0.7455889019393971
0.0011758495540521582,0.6912553038899447
0.0013049019780144017,0.5981082559089649
0.001448118227674533,0.4877487068535234
0.0016070528182616384,0.38178451070702896
0.0017834308769319094,0.29574623603742134
0.0019791668678535573,0.23659310203996992
0.002196385372416547,0.20379289383832086
0.002437444150122222,0.1923929723170955
0.002704959730463137,0.19625774460844447
0.0030018358135755923,0.21034688911367896
0.003331294787934677,0.2317534433906608
0.0036969127071950323,0.259701072770029
0.00410265810582719,0.29479696046997234
0.004552935074866948,0.3378025512985033
0.00505263106533568,0.3882304346075271
0.005607169938205458,0.4432141673454847
0.006222570836730231,0.4971722095255415
0.006905513520162331,0.5426198397744966
0.007663410868007463,0.572037711575857
0.008504489341802686,0.5801620641833303
0.009437878277775391,0.5657371122692759
0.010473708979594508,0.531917430353364
0.011623224686798541,0.48511456775171236
0.01289890261253308,0.4328301939264474
0.014314589375234785,0.3814696883726803
0.015885651294280528,0.33502432556837886
0.01762914118095948,0.2949500958695627
0.01956398343517065,0.260941402774796
0.021711179456945052,0.23197422573644516
0.02409403560239527,0.20708561120716543
0.026738416158399492,0.18568694066837163
0.029673024081888724,0.16750712004362084
0.032929712550971546,0.15237696245906268
0.036543830709572546,0.14002252763588477
0.040554607358408275,0.12994354460452176
0.04500557675700498,0.12139353078969825
0.0499450511585514,0.11345874606462167
0.05542664520663107,0.10522172876542124
0.06150985788580504,0.09596991825603349
0.06826071834272393,0.08538032485604717
0.0757525025877192,0.07360465227572954
0.08406652885618333,0.061212174453841584
0.09329304026284696,0.04900793388890285
0.10353218432956637,0.037797683136039144
0.11489510001873086,0.02818772648786902
0.1275051240713013,0.020481455287629888
0.1414991297434576,0.014685207339965815
0.15702901247293774,0.01059346018237931
0.17426333860096507,0.007905665606538421
0.19338917504552322,0.006333607621666766
0.21461411978584058,0.0056755515744796176
0.23816855519761607,0.005847766104862101
0.2643081486974108,0.006870208874060412
0.29331662783900486,0.008806430502424271
0.32550885998350565,0.011667100505518682
0.36123426997094304,0.015305011032841868
0.40088063288984643,0.01934759823697409
0.4448782831127585,0.023213234318597727
0.4937047852839004,0.026228281682174816
0.5478901179593945,0.027812082822504722
0.6080224261649427,0.027655326397425066
0.67475440531107,0.025812766671692404
0.748810385759003,0.022670570770547786
0.8309941949353403,0.018808688762125974
0.9221978823334341,0.014823641561187952
1.0234114021054528,0.011183632229005315
1.135733358343105,0.008158971039818703
1.2603829296797273,0.005829299715543335
1.3987131026472386,0.004139146070148936
1.552225357427048,0.0029657452388140884
1.7225859653987874,0.0021733141873960214
1.9116440753857036,0.0016442149695653759
2.121451784910632,0.0012898568756513748
2.35428641432242,0.0010492850274398035
2.612675225563332,0.0008828472381000724
2.8994228538828812,0.0007654728732032439
3.2176417502507353,0.0006814100031619298
3.5707859649004625,0.0006206696387694248
3.9626886387014784,0.0005768033796351268
4.397603609302721,0.0005455580694524872
4.880251583654434,0.0005240578214998838
5.415871378079476,0.0005102853595586882
6.010276782070388,0.0005027186953563341
6.669919663030129,0.0005000288207162461
7.401959996915652,0.0005007801380729225
8.214343584919439,0.0005031208661020579
9.115888299750837,0.0005045192331795329
10.11637979766207,0.0005016802061105877
11.226677735108158,0.0004908163540911567
12.458833642950081,0.00046837556719892405
13.826221737646593,0.00043211892944394
15.343684089300131,0.00038217234580942115
17.02769172225898,0.0003215270898672141
18.896523396912116,0.0002556047778137616
20.970464013232306,0.0001909235359588932
23.27202478960412,0.00013337142564203293
25.826187606826746,8.68018236804253e-05
28.66067616948256,5.2471673630828865e-05
31.80625692794119,2.9388613257659837e-05
35.297073027306574,1.5220553716893683e-05
39.17101490809261,7.277583642667139e-06
43.47013158125035,3.2084303206068465e-06
48.241087041653735,1.302859655516052e-06
53.535666774107185,4.868993853684834e-07
59.411339849650396,1.673489996590878e-07
65.93188271333541,5.287011330075215e-08
73.16807143427206,1.534637885692181e-08
81.19844993184009,4.091205675078203e-09
90.11018251665037,1.0014208221723673e-09
100.0,2.250067576504506e-10
