tau,gamma
1e-07,0.0037245717621036453
1.1097524964120721e-07,0.005329946348308055
1.2315506032928263e-07,0.007046627578799279
1.3667163564620074e-07,0.008641514350134957
1.5167168884709241e-07,0.009888189858866348
1.6831803533309585e-07,0.010645874575581325
1.867913599020781e-07,0.01090171409384908
2.0729217795953698e-07,0.010751104024863876
2.300430119772917e-07,0.010329299438167948
2.5529080682395163e-07,0.009738436751206973
2.833096101839324e-07,0.009013739529889526
3.1440354715915e-07,0.008142289341346741
3.489101213406774e-07,0.007111785453799027
3.872038781812557e-07,0.005951430792744413
4.2970047043208437e-07,0.004739672855054325
4.768611697714474e-07,0.0035798045464557706
5.291978735958437e-07,0.0025636941460296567
5.872786613189477e-07,0.001745530593491589
6.517339604882421e-07,0.0011356734895384918
7.232633896483533e-07,0.000711130873997199
8.026433522257174e-07,0.00043251570113713806
8.907354638610439e-07,0.0002585997295982278
9.884959046625586e-07,0.00015462655619191898
1.096985797892384e-06,9.491159753620788e-05
1.217382727739662e-06,6.208258735806188e-05
1.3509935211980278e-06,4.511538634545025e-05
1.499268432786047e-06,3.738654861564078e-05
1.6638168860761274e-06,3.5176771101670306e-05
1.8464249428955464e-06,3.6657455346325266e-05
2.049074689815846e-06,4.126626313432776e-05
2.2739657523579273e-06,4.936683248405444e-05
2.523539170434766e-06,6.210091725595976e-05
2.800503894183631e-06,8.134778313303903e-05
3.107866187782014e-06,0.00010970232968495109
3.4489622604057595e-06,0.00015037484714959596
3.827494478516315e-06,0.0002069111347450173
4.247571552536894e-06,0.0002826466919965349
4.713753134116729e-06,0.0003798595211244042
5.2310993080562585e-06,0.0004986828563485935
5.805225516094895e-06,0.0006359740454556737
6.44236350872137e-06,0.0007844737038179357
7.149428986597577e-06,0.0009326674869340029
7.934096665797492e-06,0.001065707999292943
8.804883581643465e-06,0.001167518789671262
9.771241535346501e-06,0.0012238097529148615
1.0843659686896109e-05,0.0012253062510610964
1.2033778407775906e-05,0.001170230674070537
1.3354515629298974e-05,0.0010651595991778276
1.48202070579886e-05,0.0009238658117554978
1.6446761779946626e-05,0.0007644964088101726
1.8251834943190462e-05,0.0006061427365391018
2.0255019392306664e-05,0.00046624761091000497
2.2478058335487252e-05,0.0003602691922956482
2.4945081352303165e-05,0.00030466533083019643
2.7682866303920665e-05,0.0003236696422947569
3.072112998861759e-05,0.00045938672082067094
3.409285069746814e-05,0.000783177051578251
3.783462617131933e-05,0.0014042379800196065
4.1987070844439056e-05,0.002469847553503272
4.659525668664687e-05,0.004152984856782992
5.170920242896755e-05,0.0066283338980826145
5.7384416483024044e-05,0.010045236317178486
6.368249944718586e-05,0.014510506888037171
7.067181273927492e-05,0.020089722566183077
7.842822061337681e-05,0.026823383107655543
8.703591361485166e-05,0.034743220512297245
9.658832241158708e-05,0.043874407911347876
0.00010718913192051276,0.054222538121529516
0.00011895340673703195,0.06575838390321483
0.0001320088400831418,0.07841478925256859
0.00014649713983072864,0.09209721026337711
0.0001625755666443795,0.1066958939890587
0.00018041864093920718,0.1220876617248107
0.00020022003718155845,0.1381280671668973
0.0002221946860939524,0.15464554203116326
0.0002465811075822604,0.17144604061347318
0.0002736439997074672,0.18832417640935967
0.00030367711180354605,0.20507016472260411
0.00033700643292719284,0.22146849617798714
0.0003739937302478798,0.2372951088787807
0.0004150404757850477,0.25232127222740014
0.00046059220411451084,0.26632351399724474
0.0005111433483440171,0.2790918373390085
0.0005672426068491978,0.29043191481135083
0.0006294988990221888,0.3001653072480183
0.0006985879746785249,0.3081337076476795
0.0007752597488629464,0.3142070019180384
0.000860346441668451,0.3182895764748434
0.0009547716114208065,0.3203215427179354
0.001059560179277617,0.3202774533108324
0.0011758495540521582,0.31816660127483787
0.0013049019780144017,0.3140349048036776
0.001448118227674533,0.30796485107754606
0.0016070528182616384,0.30007154686025045
0.0017834308769319094,0.2904969433981229
0.0019791668678535573,0.27940532180916644
0.002196385372416547,0.26698027028526133
0.002437444150122222,0.2534208938551427
0.002704959730463137,0.238936099782989
0.0030018358135755923,0.2237385889298602
0.003331294787934677,0.2080406629312301
0.0036969127071950323,0.1920516154099527
0.00410265810582719,0.17597471239484505
0.004552935074866948,0.16000296924091367
0.00505263106533568,0.14431524381417218
0.005607169938205458,0.1290742812127755
0.006222570836730231,0.11442613737046539
0.006905513520162331,0.1004989753107234
0.007663410868007463,0.08740055584626945
0.008504489341802686,0.07521607014189269
0.009437878277775391,0.06400820207358705
0.010473708979594508,0.053819092281558414
0.011623224686798541,0.044671953719829564
0.01289890261253308,0.036570854738380607
0.014314589375234785,0.029499785710560538
0.015885651294280528,0.02342353617950626
0.01762914118095948,0.018291476660513006
0.01956398343517065,0.01404258590211937
0.021711179456945052,0.010608897941444033
0.02409403560239527,0.007916116335952683
0.026738416158399492,0.005882828516349229
0.029673024081888724,0.00442102050770205
0.032929712550971546,0.003439475444707855
0.036543830709572546,0.002849328417240789
0.040554607358408275,0.002569473690558695
0.04500557675700498,0.0025296670627730543
0.0499450511585514,0.0026706072680356143
0.05542664520663107,0.002941866400104967
0.06150985788580504,0.0032993392951337405
0.06826071834272393,0.0037036478282282833
0.0757525025877192,0.0041200232401082185
0.08406652885618333,0.004519213217007519
0.09329304026284696,0.004878444102714907
0.10353218432956637,0.00518160683986019
0.11489510001873086,0.005418435524862523
0.1275051240713013,0.00558307805949326
0.1414991297434576,0.0056727304954042115
0.15702901247293774,0.00568681548388462
0.17426333860096507,0.005626743433997283
0.19338917504552322,0.005495942990623299
0.21461411978584058,0.005299796986668793
0.23816855519761607,0.005045329009104847
0.2643081486974108,0.004740740239864224
0.29331662783900486,0.00439500292540956
0.32550885998350565,0.004017637828317999
0.36123426997094304,0.0036186433034105436
0.40088063288984643,0.0032084366704942056
0.4448782831127585,0.002797673909264826
0.4937047852839004,0.00239689937721384
0.5478901179593945,0.002016072322019833
0.6080224261649427,0.0016640721352816014
0.67475440531107,0.0013482938921434656
0.748810385759003,0.001074430074594058
0.8309941949353403,0.0008465115876577167
0.9221978823334341,0.000667254812381752
1.0234114021054528,0.0005387290653348044
1.135733358343105,0.0004633264142808389
1.2603829296797273,0.0004449973109014233
1.3987131026472386,0.0004907078571103961
1.552225357427048,0.0006120224872830267
1.7225859653987874,0.0008265122935855178
1.9116440753857036,0.0011582670839585074
2.121451784910632,0.00163630710405881
2.35428641432242,0.002289671172256231
2.612675225563332,0.0031391014352324747
2.8994228538828812,0.004187729594627317
3.2176417502507353,0.005415781340597369
3.5707859649004625,0.006784427047268789
3.9626886387014784,0.00824929797348996
4.397603609302721,0.009776130861199142
4.880251583654434,0.011345632802458767
5.415871378079476,0.012939294285573447
6.010276782070388,0.014513190408160561
6.669919663030129,0.015981997790676186
7.401959996915652,0.01723444043070212
8.214343584919439,0.018178414605848424
9.115888299750837,0.01878446013321036
10.11637979766207,0.01908771906899117
11.226677735108158,0.019135847711724933
12.458833642950081,0.01891659207881142
13.826221737646593,0.018324726956268907
15.343684089300131,0.017206372627699806
17.02769172225898,0.01546166046007913
18.896523396912116,0.013139386105983678
20.970464013232306,0.010458869104054734
23.27202478960412,0.007743356069295273
25.826187606826746,0.005306295903602935
28.66067616948256,0.003354706786943028
31.80625692794119,0.0019524871066088083
35.297073027306574,0.0010446885269987266
39.17101490809261,0.0005134019683323537
43.47013158125035,0.000231603375759408
48.241087041653735,9.586990935926225e-05
53.535666774107185,3.640496815009274e-05
59.411339849650396,1.2679670378496032e-05
65.93188271333541,4.050200909450053e-06
73.16807143427206,1.1864096974407584e-06
81.19844993184009,3.186845627271997e-07
90.11018251665037,7.849486116753004e-08
100.0,1.772823725663771e-08
