tau,gamma
1e-07,6.275028565129677e-06
1.1097524964120721e-07,5.391437657210614e-05
1.2315506032928263e-07,0.0002707538512988035
1.3667163564620074e-07,0.0008041632852190391
1.5167168884709241e-07,0.0014647408979557542
1.6831803533309585e-07,0.0018003856041095495
1.867913599020781e-07,0.0017728397724994347
2.0729217795953698e-07,0.0016206794339170005
2.300430119772917e-07,0.0014541432619410506
2.5529080682395163e-07,0.0013113064390697315
2.833096101839324e-07,0.0011801629875179053
3.1440354715915e-07,0.0010687329210910578
3.489101213406774e-07,0.0009669728698877896
3.872038781812557e-07,0.0008787500834917323
4.2970047043208437e-07,0.0007999210006390651
4.768611697714474e-07,0.0007298851017328634
5.291978735958437e-07,0.0006690371346837013
5.872786613189477e-07,0.0006134933481949933
6.517339604882421e-07,0.0005661905436342589
7.232633896483533e-07,0.0005217389509898962
8.026433522257174e-07,0.0004839090158884164
8.907354638610439e-07,0.00044751064637154486
9.884959046625586e-07,0.00041582127523546894
1.096985797892384e-06,0.0003852517856055432
1.217382727739662e-06,0.0003576012054057867
1.3509935211980278e-06,0.0003316221495096187
1.499268432786047e-06,0.0003072615373497743
1.6638168860761274e-06,0.00028535080964160834
1.8464249428955464e-06,0.00026439199736358473
2.049074689815846e-06,0.00024631350997429826
2.2739657523579273e-06,0.00022900727901488478
2.523539170434766e-06,0.0002145029691228116
2.800503894183631e-06,0.00020085179397974482
3.107866187782014e-06,0.00018956005917720507
3.4489622604057595e-06,0.0001793185166007616
3.827494478516315e-06,0.00017084601599107337
4.247571552536894e-06,0.0001636448376390122
4.713753134116729e-06,0.00015763438850689595
5.2310993080562585e-06,0.00015306029332442814
5.805225516094895e-06,0.00014918289556690463
6.44236350872137e-06,0.00014678708542609459
7.149428986597577e-06,0.00014469092842473417
7.934096665797492e-06,0.00014395930066707282
8.804883581643465e-06,0.00014323891919116563
9.771241535346501e-06,0.00014357809712776815
1.0843659686896109e-05,0.0001437955975468802
1.2033778407775906e-05,0.0001445929273270549
1.3354515629298974e-05,0.00014534603953740845
1.48202070579886e-05,0.00014612410931430305
1.6446761779946626e-05,0.00014712896259037897
1.8251834943190462e-05,0.00014771599524290006
2.0255019392306664e-05,0.00014886881374219014
2.2478058335487252e-05,0.00014944197327247452
2.4945081352303165e-05,0.00015082857058021848
2.7682866303920665e-05,0.00015178490235173467
3.072112998861759e-05,0.00015360901008739706
3.409285069746814e-05,0.0001553527813817475
3.783462617131933e-05,0.00015779307895680988
4.1987070844439056e-05,0.000160550069916792
4.659525668664687e-05,0.00016361640940666837
5.170920242896755e-05,0.00016732130856708468
5.7384416483024044e-05,0.00017079490366556205
6.368249944718586e-05,0.00017506247066940417
7.067181273927492e-05,0.000178563839034176
7.842822061337681e-05,0.00018277157565180536
8.703591361485166e-05,0.0001859287491661229
9.658832241158708e-05,0.00018944249649372917
0.00010718913192051276,0.0001920721950614732
0.00011895340673703195,0.0001945703258246678
0.0001320088400831418,0.00019680308734399053
0.00014649713983072864,0.00019855138217044228
0.0001625755666443795,0.00020091427783070726
0.00018041864093920718,0.00020286955514374597
0.00020022003718155845,0.00020638726770404512
0.0002221946860939524,0.00021018825978121584
0.0002465811075822604,0.0002165842706398247
0.0002736439997074672,0.00022469885877931926
0.00030367711180354605,0.00023690113227360011
0.00033700643292719284,0.00025341641254948797
0.0003739937302478798,0.0002770490107754402
0.0004150404757850477,0.00031051263153885077
0.00046059220411451084,0.00036072926618024257
0.0005111433483440171,0.0004734370421603777
0.0005672426068491978,0.0014197462770736287
0.0006294988990221888,0.013085389932018373
0.0006985879746785249,0.10656418527983638
0.0007752597488629464,0.5314392767278995
0.000860346441668451,1.5545399083997398
0.0009547716114208065,2.6497293663073327
0.001059560179277617,2.6285820086523803
0.0011758495540521582,1.518326828123838
0.0013049019780144017,0.5121576025685166
0.001448118227674533,0.10209525800004059
0.0016070528182616384,0.012789852330831429
0.0017834308769319094,0.0015224469957790664
0.0019791668678535573,0.0005543993627980299
0.002196385372416547,0.00043675543547837644
0.002437444150122222,0.0003889166340168091
0.002704959730463137,0.0003607503620242315
0.0030018358135755923,0.00034772440398923534
0.003331294787934677,0.00034942319616436824
0.0036969127071950323,0.00036725143690128785
0.00410265810582719,0.0004075214939513327
0.004552935074866948,0.0005028963932579807
0.00505263106533568,0.0009724218283189306
0.005607169938205458,0.004234978234690033
0.006222570836730231,0.02372629062399612
0.006905513520162331,0.12193803632692234
0.007663410868007463,0.5051217967341156
0.008504489341802686,1.4364328993237123
0.009437878277775391,2.5274876709148515
0.010473708979594508,2.638656169788179
0.011623224686798541,1.6118845733787746
0.01289890261253308,0.5738042322124266
0.014314589375234785,0.11901964910931222
0.015885651294280528,0.014508941747578087
0.01762914118095948,0.0011541713177486655
0.01956398343517065,0.00015983446020310617
0.021711179456945052,9.957450619618376e-05
0.02409403560239527,8.468811482471724e-05
0.026738416158399492,7.461978836945573e-05
0.029673024081888724,6.695160713014355e-05
0.032929712550971546,6.127892326017962e-05
0.036543830709572546,5.679736774066971e-05
0.040554607358408275,5.359978283527749e-05
0.04500557675700498,5.106829689340287e-05
0.0499450511585514,4.945119208737865e-05
0.05542664520663107,4.825051582567501e-05
0.06150985788580504,4.7725707946412553e-05
0.06826071834272393,4.751714735033274e-05
0.0757525025877192,4.779712657792186e-05
0.08406652885618333,4.839154715398617e-05
0.09329304026284696,4.9309440463125485e-05
0.10353218432956637,5.060373239619283e-05
0.11489510001873086,5.207860910788898e-05
0.1275051240713013,5.4016831268887e-05
0.1414991297434576,5.6031512652211676e-05
0.15702901247293774,5.857759141576422e-05
0.17426333860096507,6.115908664033819e-05
0.19338917504552322,6.428257769133595e-05
0.21461411978584058,6.749196273884488e-05
0.23816855519761607,7.118043250856841e-05
0.2643081486974108,7.512107337905738e-05
0.29331662783900486,7.942989545046883e-05
0.32550885998350565,8.426952003474598e-05
0.36123426997094304,8.93836271758805e-05
0.40088063288984643,9.536568729125792e-05
0.4448782831127585,0.00010160287843433717
0.4937047852839004,0.0001090012628556383
0.5478901179593945,0.00011670163268606579
0.6080224261649427,0.00012566490936075293
0.67475440531107,0.00013497153349722028
0.748810385759003,0.00014526064177975074
0.8309941949353403,0.00015586497912697405
0.9221978823334341,0.0001666442887806507
1.0234114021054528,0.0001776456117516874
1.135733358343105,0.00018763246950748375
1.2603829296797273,0.00019770173632972294
1.3987131026472386,0.00020577584188896463
1.552225357427048,0.00021371003699628682
1.7225859653987874,0.000219520545603334
1.9116440753857036,0.0002248995497241494
2.121451784910632,0.00022893582599342103
2.35428641432242,0.0002323028658518915
2.612675225563332,0.00023551936679421027
2.8994228538828812,0.00023799031469179036
3.2176417502507353,0.00024141717817820598
3.5707859649004625,0.00024426177885769076
3.9626886387014784,0.0002488778712982719
4.397603609302721,0.0002534333391941342
4.880251583654434,0.00026032044972270973
5.415871378079476,0.0002681198144559197
6.010276782070388,0.000278715986336185
6.669919663030129,0.000291635138507224
7.401959996915652,0.0003078915623711218
8.214343584919439,0.00032825056909950573
9.115888299750837,0.0003526464418586264
10.11637979766207,0.0003832398816521441
11.226677735108158,0.0004186147469777976
12.458833642950081,0.0004609948402987903
13.826221737646593,0.0004967447333483049
15.343684089300131,0.0004887880960425232
17.02769172225898,0.0003729985761268491
18.896523396912116,0.00018773924393527348
20.970464013232306,5.7403291973975304e-05
23.27202478960412,1.0347632582993014e-05
25.826187606826746,1.089174415312522e-06
28.66067616948256,6.674592672349535e-08
31.80625692794119,2.379219146245379e-09
35.297073027306574,4.9318414437884394e-11
39.17101490809261,5.944472759257787e-13
43.47013158125035,4.1661650885341865e-15
48.241087041653735,1.6977560570997435e-17
53.535666774107185,4.022803416236956e-20
59.411339849650396,5.542385728174208e-23
65.93188271333541,4.439959540231251e-26
73.16807143427206,2.0681192560313417e-29
81.19844993184009,5.601269087533343e-33
90.11018251665037,8.820873336549733e-37
100.0,8.07701751297321e-41
