tau,gamma
1e-07,0.00016020392318178816
1.1097524964120721e-07,0.00023527224021882825
1.2315506032928263e-07,0.00031989800651001333
1.3667163564620074e-07,0.00040374507874998923
1.5167168884709241e-07,0.0004745599638258439
1.6831803533309585e-07,0.000521687214162869
1.867913599020781e-07,0.0005393023874273239
2.0729217795953698e-07,0.0005279053426983809
2.300430119772917e-07,0.0004935110220382385
2.5529080682395163e-07,0.00044514750771307445
2.833096101839324e-07,0.0003919662353399225
3.1440354715915e-07,0.00034114720324273534
3.489101213406774e-07,0.00029709850688035093
3.872038781812557e-07,0.0002617436281704082
4.2970047043208437e-07,0.0002353431881941022
4.768611697714474e-07,0.00021734367812437634
5.291978735958437e-07,0.00020698631173950922
5.872786613189477e-07,0.000203635942824642
6.517339604882421e-07,0.0002069083193637424
7.232633896483533e-07,0.000216695082639441
8.026433522257174e-07,0.000233160708038941
8.907354638610439e-07,0.00025675401787657694
9.884959046625586e-07,0.00028825481047042834
1.096985797892384e-06,0.0003288636633992969
1.217382727739662e-06,0.00038033545007260276
1.3509935211980278e-06,0.0004451504345013493
1.499268432786047e-06,0.000526707644933164
1.6638168860761274e-06,0.0006295099070845931
1.8464249428955464e-06,0.0007592850862541979
2.049074689815846e-06,0.0009229548952135975
2.2739657523579273e-06,0.0011283337531455642
2.523539170434766e-06,0.001383444402976411
2.800503894183631e-06,0.0016954113343511218
3.107866187782014e-06,0.002069054833861049
3.4489622604057595e-06,0.002505515978549335
3.827494478516315e-06,0.0030013789775202694
4.247571552536894e-06,0.0035486781056200726
4.713753134116729e-06,0.004135826937131325
5.2310993080562585e-06,0.0047490270674006435
5.805225516094895e-06,0.005373413383362732
6.44236350872137e-06,0.005993358062791263
7.149428986597577e-06,0.006591984477962208
7.934096665797492e-06,0.007150651935522702
8.804883581643465e-06,0.00764941186019627
9.771241535346501e-06,0.008068909369820158
1.0843659686896109e-05,0.008393181997089591
1.2033778407775906e-05,0.008612030659722795
1.3354515629298974e-05,0.008721798130326038
1.48202070579886e-05,0.008724532522402073
1.6446761779946626e-05,0.00862685821985814
1.8251834943190462e-05,0.008440308546391528
2.0255019392306664e-05,0.008183830578018976
2.2478058335487252e-05,0.007887261543913773
2.4945081352303165e-05,0.007593340872044543
2.7682866303920665e-05,0.00735665043952631
3.072112998861759e-05,0.007240737245386302
3.409285069746814e-05,0.007317600639229818
3.783462617131933e-05,0.007673664384519474
4.1987070844439056e-05,0.008421313859787439
4.659525668664687e-05,0.009706666144953855
5.170920242896755e-05,0.011698623713884963
5.7384416483024044e-05,0.014549323865907673
6.368249944718586e-05,0.01833443091527312
7.067181273927492e-05,0.023003892252412967
7.842822061337681e-05,0.028380309750468617
8.703591361485166e-05,0.034218775287928285
9.658832241158708e-05,0.04029920503125589
0.00010718913192051276,0.046495825677938876
0.00011895340673703195,0.0527904939944648
0.0001320088400831418,0.05925555543367123
0.00014649713983072864,0.06606929363269873
0.0001625755666443795,0.07358961505999365
0.00018041864093920718,0.08241915288611024
0.00020022003718155845,0.09334386067456844
0.0002221946860939524,0.1071026947263476
0.0002465811075822604,0.12411478634724264
0.0002736439997074672,0.14439277323069166
0.00030367711180354605,0.16775700666178847
0.00033700643292719284,0.19417263941769022
0.0003739937302478798,0.22381704604665825
0.0004150404757850477,0.2566225249235626
0.00046059220411451084,0.29152080574699485
0.0005111433483440171,0.32605447686014283
0.0005672426068491978,0.3569368751271511
0.0006294988990221888,0.38145052672245955
0.0006985879746785249,0.39879092791148146
0.0007752597488629464,0.4103230549120907
0.000860346441668451,0.41847190760267333
0.0009547716114208065,0.42504344847802716
0.001059560179277617,0.4302319995148246
0.0011758495540521582,0.43298713021666946
0.0013049019780144017,0.43229818118525437
0.001448118227674533,0.42828776299495025
0.0016070528182616384,0.42231892862556514
0.0017834308769319094,0.41623442644938996
0.0019791668678535573,0.4114898103433374
0.002196385372416547,0.40880559380996956
0.002437444150122222,0.40832951253322175
0.002704959730463137,0.40986802430689523
0.0030018358135755923,0.41289244935800457
0.003331294787934677,0.4164680768901869
0.0036969127071950323,0.41943146759066785
0.00410265810582719,0.4208470686333007
0.004552935074866948,0.42036957424051397
0.00505263106533568,0.41812418868384665
0.005607169938205458,0.4141616828366708
0.006222570836730231,0.40799694779213275
0.006905513520162331,0.3987141319292656
0.007663410868007463,0.3856237748523733
0.008504489341802686,0.3689722124569871
0.009437878277775391,0.35018071607411094
0.010473708979594508,0.33149880238664275
0.011623224686798541,0.31536072102885077
0.01289890261253308,0.3037860004235455
0.014314589375234785,0.2979354023521624
0.015885651294280528,0.2977692388685365
0.01762914118095948,0.30184830316594347
0.01956398343517065,0.3074911586642417
0.021711179456945052,0.31143929363072265
0.02409403560239527,0.3108329666498062
0.026738416158399492,0.30398582319649414
0.029673024081888724,0.29052760780567455
0.032929712550971546,0.2709530930026541
0.036543830709572546,0.2460584468980192
0.040554607358408275,0.2167496101531504
0.04500557675700498,0.1842789248412
0.0499450511585514,0.1505274948918726
0.05542664520663107,0.11790737948724991
0.06150985788580504,0.08881144078899317
0.06826071834272393,0.06493038189474734
0.0757525025877192,0.04684879115194352
0.08406652885618333,0.034104758290699276
0.09329304026284696,0.025592990830887456
0.10353218432956637,0.020043799962524665
0.11489510001873086,0.016364996840181313
0.1275051240713013,0.013780876732839963
0.1414991297434576,0.011818109654903387
0.15702901247293774,0.010224401795802767
0.17426333860096507,0.00888393223278633
0.19338917504552322,0.00775589731094374
0.21461411978584058,0.006836302161093398
0.23816855519761607,0.006134399520210622
0.2643081486974108,0.005657402550429514
0.29331662783900486,0.005401606105967151
0.32550885998350565,0.0053498902414615135
0.36123426997094304,0.005474543674352251
0.40088063288984643,0.005742707553650085
0.4448782831127585,0.006121411677287526
0.4937047852839004,0.006580378460700049
0.5478901179593945,0.00709250123191662
0.6080224261649427,0.007633074323453601
0.67475440531107,0.008179023797400622
0.748810385759003,0.00870881083492944
0.8309941949353403,0.009202932011091779
0.9221978823334341,0.009644515403500285
1.0234114021054528,0.01001957213537659
1.135733358343105,0.010316828982988191
1.2603829296797273,0.010527401032457119
1.3987131026472386,0.01064462429603852
1.552225357427048,0.010664166183401567
1.7225859653987874,0.010584274206521676
1.9116440753857036,0.01040592275999431
2.121451784910632,0.0101327244465387
2.35428641432242,0.009770661323779432
2.612675225563332,0.009327792478653408
2.8994228538828812,0.008814038488185077
3.2176417502507353,0.008241004451573603
3.5707859649004625,0.007621716349899725
3.9626886387014784,0.006970185305889059
4.397603609302721,0.0063008385529366075
4.880251583654434,0.005627950832389978
5.415871378079476,0.004965190786026289
6.010276782070388,0.004325278064871561
6.669919663030129,0.0037196289613523606
7.401959996915652,0.0031578578906127646
8.214343584919439,0.002647127910594245
9.115888299750837,0.0021915318055373036
10.11637979766207,0.0017918070570380632
11.226677735108158,0.0014456430623578501
12.458833642950081,0.0011486208821559316
13.826221737646593,0.0008955329443885775
15.343684089300131,0.0006816193798365301
17.02769172225898,0.0005032618471585236
18.896523396912116,0.0003579201257303876
20.970464013232306,0.0002434639406051537
23.27202478960412,0.0001573362331984794
25.826187606826746,9.601889849537379e-05
28.66067616948256,5.505025311441757e-05
31.80625692794119,2.952098734191675e-05
35.297073027306574,1.4753341814475127e-05
39.17101490809261,6.8507745175447255e-06
43.47013158125035,2.9486202789096936e-06
48.241087041653735,1.173992025795289e-06
53.535666774107185,4.3169481781320036e-07
59.411339849650396,1.4641413204281228e-07
65.93188271333541,4.575290814152171e-08
73.16807143427206,1.3161483623463052e-08
81.19844993184009,3.4828267071073714e-09
90.11018251665037,8.473183853256723e-10
100.0,1.894270014371727e-10
