tau,gamma
1e-07,-1.249118421927965e-06
1.1097524964120721e-07,-6.442133243432973e-06
1.2315506032928263e-07,-2.2681280076469156e-05
1.3667163564620074e-07,-5.6427514022968836e-05
1.5167168884709241e-07,-0.00010574387742250459
1.6831803533309585e-07,-0.0001628537383567343
1.867913599020781e-07,-0.0002218280609882683
2.0729217795953698e-07,-0.0002777964975379848
2.300430119772917e-07,-0.0003267074062662073
2.5529080682395163e-07,-0.00036353931252774296
2.833096101839324e-07,-0.00038308210543201986
3.1440354715915e-07,-0.0003818333395024252
3.489101213406774e-07,-0.0003561989463439501
3.872038781812557e-07,-0.0003060688562276749
4.2970047043208437e-07,-0.00023209888147827113
4.768611697714474e-07,-0.00013702122744350663
5.291978735958437e-07,-2.557542027236205e-05
5.872786613189477e-07,9.80360680086272e-05
6.517339604882421e-07,0.0002274099848508011
7.232633896483533e-07,0.00035756846654530635
8.026433522257174e-07,0.0004826229143260271
8.907354638610439e-07,0.0005971816721993374
9.884959046625586e-07,0.0006975270030765182
1.096985797892384e-06,0.0007797092190581716
1.217382727739662e-06,0.0008443308938377252
1.3509935211980278e-06,0.0008919316171145939
1.499268432786047e-06,0.0009255975220489058
1.6638168860761274e-06,0.0009487935363206198
1.8464249428955464e-06,0.0009662625859088614
2.049074689815846e-06,0.0009849771937005172
2.2739657523579273e-06,0.001011463119707146
2.523539170434766e-06,0.0010538875142542016
2.800503894183631e-06,0.0011193215439283604
3.107866187782014e-06,0.0012153531436365336
3.4489622604057595e-06,0.0013483249854107126
3.827494478516315e-06,0.0015247804100711716
4.247571552536894e-06,0.0017491364516693322
4.713753134116729e-06,0.0020266445437987653
5.2310993080562585e-06,0.0023590449234210907
5.805225516094895e-06,0.0027497393728479268
6.44236350872137e-06,0.003198743691799619
7.149428986597577e-06,0.003706483327412356
7.934096665797492e-06,0.00427297283725073
8.804883581643465e-06,0.004894837536461073
9.771241535346501e-06,0.005574240996794561
1.0843659686896109e-05,0.0063050994261494644
1.2033778407775906e-05,0.007091773324424483
1.3354515629298974e-05,0.007927943840259973
1.48202070579886e-05,0.008818502435280498
1.6446761779946626e-05,0.009760986390029723
1.8251834943190462e-05,0.010758219048864644
2.0255019392306664e-05,0.011814636994831793
2.2478058335487252e-05,0.012928968362788281
2.4945081352303165e-05,0.014113617433615942
2.7682866303920665e-05,0.015363664529130544
3.072112998861759e-05,0.01669817026493404
3.409285069746814e-05,0.018112026198923596
3.783462617131933e-05,0.01962675388683525
4.1987070844439056e-05,0.021242422972744427
4.659525668664687e-05,0.022978651895588186
5.170920242896755e-05,0.024848297480266745
5.7384416483024044e-05,0.026866314495357712
6.368249944718586e-05,0.029064380341699794
7.067181273927492e-05,0.031455024199535046
7.842822061337681e-05,0.03409480721053803
8.703591361485166e-05,0.037002556108239826
9.658832241158708e-05,0.04025800344301972
0.00010718913192051276,0.04389791944795137
0.00011895340673703195,0.048028521716542344
0.0001320088400831418,0.05273545949738119
0.00014649713983072864,0.05817705817330964
0.0001625755666443795,0.06454742326542624
0.00018041864093920718,0.07209490703501346
0.00020022003718155845,0.0811882676292206
0.0002221946860939524,0.09231765669790844
0.0002465811075822604,0.10630108838649077
0.0002736439997074672,0.12400003396892453
0.00030367711180354605,0.14629034986542797
0.00033700643292719284,0.17362376113197947
0.0003739937302478798,0.2060230593710819
0.0004150404757850477,0.24251108732183121
0.00046059220411451084,0.2821391124083072
0.0005111433483440171,0.32344959069414464
0.0005672426068491978,0.3649056112140344
0.0006294988990221888,0.4049412167316306
0.0006985879746785249,0.44073438406949345
0.0007752597488629464,0.4691773765666421
0.000860346441668451,0.48631818925928666
0.0009547716114208065,0.49179611237357956
0.001059560179277617,0.4867351726989918
0.0011758495540521582,0.4733849995653926
0.0013049019780144017,0.45483083298859006
0.001448118227674533,0.43317372044656516
0.0016070528182616384,0.41076126020302006
0.0017834308769319094,0.38879378769081874
0.0019791668678535573,0.36887407853319376
0.002196385372416547,0.35183681277973156
0.002437444150122222,0.33858241616438894
0.002704959730463137,0.3295460796576163
0.0030018358135755923,0.32501981324108054
0.003331294787934677,0.32505135675062413
0.0036969127071950323,0.3295386178150925
0.00410265810582719,0.338311576839527
0.004552935074866948,0.3509337646808319
0.00505263106533568,0.36699002046291673
0.005607169938205458,0.3855371709019167
0.006222570836730231,0.40581329769769203
0.006905513520162331,0.42625766159496276
0.007663410868007463,0.44579515954621396
0.008504489341802686,0.4623567449393971
0.009437878277775391,0.47409564064684656
0.010473708979594508,0.47849150695149045
0.011623224686798541,0.4736535257596287
0.01289890261253308,0.45900797407385374
0.014314589375234785,0.43460198513882914
0.015885651294280528,0.403275210927637
0.01762914118095948,0.36726073970961653
0.01956398343517065,0.3290411250623849
0.021711179456945052,0.2902468836149332
0.02409403560239527,0.2523462116991012
0.026738416158399492,0.21676525391562018
0.029673024081888724,0.18431208798274476
0.032929712550971546,0.15591449520654688
0.036543830709572546,0.13176040937615746
0.040554607358408275,0.11192742775964463
0.04500557675700498,0.09597876285403112
0.0499450511585514,0.08324263230864236
0.05542664520663107,0.07293914427618077
0.06150985788580504,0.06448661020320974
0.06826071834272393,0.05743363231225523
0.0757525025877192,0.05145906900515413
0.08406652885618333,0.046352753980081374
0.09329304026284696,0.04192960521872215
0.10353218432956637,0.038095439769330074
0.11489510001873086,0.034729903381181405
0.1275051240713013,0.03178654811706525
0.1414991297434576,0.029180883705058534
0.15702901247293774,0.026881682732741486
0.17426333860096507,0.024830381661428407
0.19338917504552322,0.023000934969664183
0.21461411978584058,0.021358986000018516
0.23816855519761607,0.019878408091593205
0.2643081486974108,0.0185420979602267
0.29331662783900486,0.017322707027630422
0.32550885998350565,0.016214528797330204
0.36123426997094304,0.015191236848473587
0.40088063288984643,0.014252388853373259
0.4448782831127585,0.013375441614290955
0.4937047852839004,0.012559950395950875
0.5478901179593945,0.011789480087318106
0.6080224261649427,0.011060558135966798
0.67475440531107,0.010364135858883551
0.748810385759003,0.009692698579149318
0.8309941949353403,0.009044048027779868
0.9221978823334341,0.008408758236298611
1.0234114021054528,0.007790986343489516
1.135733358343105,0.007182412702120157
1.2603829296797273,0.006589133697055724
1.3987131026472386,0.006006181345555965
1.552225357427048,0.005439507126462358
1.7225859653987874,0.004890019761590435
1.9116440753857036,0.004361683380870065
2.121451784910632,0.003859727921336712
2.35428641432242,0.0033851304344570837
2.612675225563332,0.0029436787470663644
2.8994228538828812,0.0025347348037621387
3.2176417502507353,0.002163134576407832
3.5707859649004625,0.001828412166244801
3.9626886387014784,0.0015326267621753314
4.397603609302721,0.0012753277144978315
4.880251583654434,0.0010554270363680774
5.415871378079476,0.0008714271083058338
6.010276782070388,0.0007192677777103283
6.669919663030129,0.0005951802337181864
7.401959996915652,0.0004942768731597413
8.214343584919439,0.0004127567866690158
9.115888299750837,0.0003462223040566083
10.11637979766207,0.00029079212755285874
11.226677735108158,0.00024279508460336687
12.458833642950081,0.00019974288938884983
13.826221737646593,0.00015917355898825204
15.343684089300131,0.00011865493624227208
17.02769172225898,7.758859207463856e-05
18.896523396912116,4.053807348963801e-05
20.970464013232306,1.5538305145653496e-05
23.27202478960412,4.143183395809284e-06
25.826187606826746,7.485666491229709e-07
28.66067616948256,9.058327788163169e-08
31.80625692794119,7.305830623121493e-09
35.297073027306574,3.919452507709816e-10
39.17101490809261,1.3975304810507774e-11
43.47013158125035,3.3108046124618625e-13
48.241087041653735,5.210554922843369e-15
53.535666774107185,5.447396614345175e-17
59.411339849650396,3.7830237283229804e-19
65.93188271333541,1.7451401975262342e-21
73.16807143427206,5.347628188110153e-24
81.19844993184009,1.0885066276681526e-26
90.11018251665037,1.4717691238667344e-29
100.0,1.3218644717883712e-32
