tau,gamma
1e-07,3.855718935037756e-06
1.1097524964120721e-07,1.9791686140719485e-05
1.2315506032928263e-07,6.891414808148364e-05
1.3667163564620074e-07,0.00016732873042839337
1.5167168884709241e-07,0.0002993835095377422
1.6831803533309585e-07,0.0004304862684662633
1.867913599020781e-07,0.000545299405097054
2.0729217795953698e-07,0.0006466435114306674
2.300430119772917e-07,0.0007408161494379532
2.5529080682395163e-07,0.0008309296957443109
2.833096101839324e-07,0.0009186095497350593
3.1440354715915e-07,0.0010076588102260352
3.489101213406774e-07,0.0011009618634179037
3.872038781812557e-07,0.001202670118656372
4.2970047043208437e-07,0.0013149201888807548
4.768611697714474e-07,0.0014411951368247424
5.291978735958437e-07,0.0015830473745476865
5.872786613189477e-07,0.0017430190152705504
6.517339604882421e-07,0.0019221406392091569
7.232633896483533e-07,0.0021215181969249882
8.026433522257174e-07,0.0023421799407381573
8.907354638610439e-07,0.0025835108488001324
9.884959046625586e-07,0.0028471645532218617
1.096985797892384e-06,0.0031309618198826768
1.217382727739662e-06,0.003437228164652498
1.3509935211980278e-06,0.003763015288143704
1.499268432786047e-06,0.004110745056328474
1.6638168860761274e-06,0.004478241225115407
1.8464249428955464e-06,0.004866845610294596
2.049074689815846e-06,0.005276540297157072
2.2739657523579273e-06,0.0057064301548687395
2.523539170434766e-06,0.006159446660041911
2.800503894183631e-06,0.006632093993349613
3.107866187782014e-06,0.007129840339703173
3.4489622604057595e-06,0.007647356212195967
3.827494478516315e-06,0.008190887121894594
4.247571552536894e-06,0.008755091045904644
4.713753134116729e-06,0.009344340937944852
5.2310993080562585e-06,0.009955636099623556
5.805225516094895e-06,0.01058890666366044
6.44236350872137e-06,0.011245488511165877
7.149428986597577e-06,0.01191948542662592
7.934096665797492e-06,0.01261697305517386
8.804883581643465e-06,0.013326978516713092
9.771241535346501e-06,0.01405860751101223
1.0843659686896109e-05,0.01479904498411733
1.2033778407775906e-05,0.015556814019314007
1.3354515629298974e-05,0.01632207743431549
1.48202070579886e-05,0.01709851690325862
1.6446761779946626e-05,0.01788380305481057
1.8251834943190462e-05,0.01867386638958059
2.0255019392306664e-05,0.01947610405507672
2.2478058335487252e-05,0.02027877655288091
2.4945081352303165e-05,0.021097423825070752
2.7682866303920665e-05,0.02191608859838874
3.072112998861759e-05,0.022753286367820313
3.409285069746814e-05,0.023594588429153653
3.783462617131933e-05,0.024454504232540458
4.1987070844439056e-05,0.025326027491740694
4.659525668664687e-05,0.02621347570973353
5.170920242896755e-05,0.027121069675817084
5.7384416483024044e-05,0.028039951844319337
6.368249944718586e-05,0.028985638852649084
7.067181273927492e-05,0.029937812179629375
7.842822061337681e-05,0.03091919811138769
8.703591361485166e-05,0.03190450688258332
9.658832241158708e-05,0.032916331815702395
0.00010718913192051276,0.033933954133108075
0.00011895340673703195,0.03497158859635375
0.0001320088400831418,0.03602246099017804
0.00014649713983072864,0.03708676459464397
0.0001625755666443795,0.03817745198308291
0.00018041864093920718,0.03928075366527298
0.00020022003718155845,0.040429066659708454
0.0002221946860939524,0.04160167882635285
0.0002465811075822604,0.0428443388362235
0.0002736439997074672,0.04414165013457645
0.00030367711180354605,0.045542834376948345
0.00033700643292719284,0.047050895339862
0.0003739937302478798,0.04871015204501389
0.0004150404757850477,0.05055285679073925
0.00046059220411451084,0.05261531959318171
0.0005111433483440171,0.05496505512726663
0.0005672426068491978,0.05763648895738097
0.0006294988990221888,0.060738227626387455
0.0006985879746785249,0.06431977811852072
0.0007752597488629464,0.06853592314753289
0.000860346441668451,0.07347933413167904
0.0009547716114208065,0.07936787401260613
0.001059560179277617,0.08638665195053656
0.0011758495540521582,0.09485257807440858
0.0013049019780144017,0.1051105380918994
0.001448118227674533,0.11761381400773295
0.0016070528182616384,0.13287506704947105
0.0017834308769319094,0.15133110367956762
0.0019791668678535573,0.17330668482101613
0.002196385372416547,0.19880317709545095
0.002437444150122222,0.22774893331512125
0.002704959730463137,0.25949999569343624
0.0030018358135755923,0.2936397336640297
0.003331294787934677,0.32905624223887786
0.0036969127071950323,0.3648390258980985
0.00410265810582719,0.3995939680444628
0.004552935074866948,0.4321088241113371
0.00505263106533568,0.4612849429335711
0.005607169938205458,0.4838049662228684
0.006222570836730231,0.4944810188536085
0.006905513520162331,0.4877752894577848
0.007663410868007463,0.4649348037330153
0.008504489341802686,0.42986722338895916
0.009437878277775391,0.38609090846294974
0.010473708979594508,0.3365001973244693
0.011623224686798541,0.2828889917238067
0.01289890261253308,0.22778827337087562
0.014314589375234785,0.17229387811709365
0.015885651294280528,0.11785600898917653
0.01762914118095948,0.06777431192177538
0.01956398343517065,0.029598750183806165
0.021711179456945052,0.009866547071440782
0.02409403560239527,0.004573985654329598
0.026738416158399492,0.004215208364841555
0.029673024081888724,0.0036621637424391405
0.032929712550971546,0.0026767704056828603
0.036543830709572546,0.0019302843619434856
0.040554607358408275,0.0014443217007018593
0.04500557675700498,0.0010203174332156534
0.0499450511585514,0.0006117534288088535
0.05542664520663107,0.00025206459599743487
0.06150985788580504,-4.917038198953648e-05
0.06826071834272393,-0.00030122371054300067
0.0757525025877192,-0.0005133146731802164
0.08406652885618333,-0.0006854921560536172
0.09329304026284696,-0.0008191998594827117
0.10353218432956637,-0.0009156150995640544
0.11489510001873086,-0.0009758226823657044
0.1275051240713013,-0.0010016554465797712
0.1414991297434576,-0.0009926231153166228
0.15702901247293774,-0.0009509926822452046
0.17426333860096507,-0.000876493601230874
0.19338917504552322,-0.0007712654703419564
0.21461411978584058,-0.0006364240212971376
0.23816855519761607,-0.0004736240203288494
0.2643081486974108,-0.00028596950120780016
0.29331662783900486,-7.493158157678546e-05
0.32550885998350565,0.00015507536363613242
0.36123426997094304,0.00040189081613396284
0.40088063288984643,0.0006610623841000813
0.4448782831127585,0.0009288022613446045
0.4937047852839004,0.0012016240965821736
0.5478901179593945,0.0014739828934809828
0.6080224261649427,0.00174360300797894
0.67475440531107,0.002004314115185129
0.748810385759003,0.0022542036017166207
0.8309941949353403,0.0024881269781683118
0.9221978823334341,0.0027034208358003254
1.0234114021054528,0.0028975192643251953
1.135733358343105,0.0030665559428208473
1.2603829296797273,0.0032108755706323874
1.3987131026472386,0.0033260797038073804
1.552225357427048,0.0034145267694663272
1.7225859653987874,0.0034728567622170415
1.9116440753857036,0.00350365840438747
2.121451784910632,0.0035059818320658585
2.35428641432242,0.003481276991617688
2.612675225563332,0.0034316810502688735
2.8994228538828812,0.003357207087703927
3.2176417502507353,0.0032623869122201826
3.5707859649004625,0.003146461981729307
3.9626886387014784,0.0030146615741188892
4.397603609302721,0.0028666155264259136
4.880251583654434,0.0027067239750945314
5.415871378079476,0.002535999505114704
6.010276782070388,0.0023569472424680854
6.669919663030129,0.0021719106962929694
7.401959996915652,0.001981549915266755
8.214343584919439,0.0017889593648812575
9.115888299750837,0.0015934414623804934
10.11637979766207,0.001397434624687982
11.226677735108158,0.0012005300323529615
12.458833642950081,0.0010052949890081988
13.826221737646593,0.0008098478314163646
15.343684089300131,0.0006077456993237832
17.02769172225898,0.0003989850994747392
18.896523396912116,0.00020889635684835615
20.970464013232306,8.014859569869818e-05
23.27202478960412,2.138011436579263e-05
25.826187606826746,3.863516692622075e-06
28.66067616948256,4.675538757969366e-07
31.80625692794119,3.771081881602759e-08
35.297073027306574,2.023144642486923e-09
39.17101490809261,7.213813453298503e-11
43.47013158125035,1.7089840793989364e-12
48.241087041653735,2.6896067508959193e-14
53.535666774107185,2.811861616753966e-16
59.411339849650396,1.9527384079959308e-18
65.93188271333541,9.008144579908072e-21
73.16807143427206,2.760363262891888e-23
81.19844993184009,5.618703519570584e-26
90.11018251665037,7.597045506901633e-29
100.0,6.823260793684843e-32
