tau,gamma
1e-07,8.999499657253488e-05
1.1097524964120721e-07,0.00046284633676212355
1.2315506032928263e-07,0.0016190230432402376
1.3667163564620074e-07,0.003971563481973679
1.5167168884709241e-07,0.007251321065650698
1.6831803533309585e-07,0.010771066661327388
1.867913599020781e-07,0.014202190710207615
2.0729217795953698e-07,0.017541920197365626
2.300430119772917e-07,0.0208681159193636
2.5529080682395163e-07,0.024182013992964924
2.833096101839324e-07,0.027455941971420685
3.1440354715915e-07,0.03070073208809038
3.489101213406774e-07,0.03389076215249746
3.872038781812557e-07,0.037056098267531826
4.2970047043208437e-07,0.04016063591973091
4.768611697714474e-07,0.043232712282991734
5.291978735958437e-07,0.046246006643547284
5.872786613189477e-07,0.04921329860852676
6.517339604882421e-07,0.052131500696660796
7.232633896483533e-07,0.05498663273587349
8.026433522257174e-07,0.057804270017792474
8.907354638610439e-07,0.060544453834340414
9.884959046625586e-07,0.0632544441750141
1.096985797892384e-06,0.06588104230106755
1.217382727739662e-06,0.06847563902683917
1.3509935211980278e-06,0.07099231923369015
1.499268432786047e-06,0.07346513037926793
1.6638168860761274e-06,0.07587550793913464
1.8464249428955464e-06,0.07822363397158598
2.049074689815846e-06,0.08052927335246668
2.2739657523579273e-06,0.08275463313605455
2.523539170434766e-06,0.08495425477716699
2.800503894183631e-06,0.08706346103674345
3.107866187782014e-06,0.08915371037857237
3.4489622604057595e-06,0.09115643268938298
3.827494478516315e-06,0.09313394344440505
4.247571552536894e-06,0.09504031362839024
4.713753134116729e-06,0.09690425666953438
5.2310993080562585e-06,0.0987222767353136
5.805225516094895e-06,0.10047635883915348
6.44236350872137e-06,0.1022103010708334
7.149428986597577e-06,0.10386335929662108
7.934096665797492e-06,0.10551378556298796
8.804883581643465e-06,0.10707864762444895
9.771241535346501e-06,0.10864406067849106
1.0843659686896109e-05,0.11013500762019349
1.2033778407775906e-05,0.11161451978890038
1.3354515629298974e-05,0.1130442380789326
1.48202070579886e-05,0.11444024480712181
1.6446761779946626e-05,0.11581737925514192
1.8251834943190462e-05,0.11713720892833795
2.0255019392306664e-05,0.118465438656464
2.2478058335487252e-05,0.11972132265590865
2.4945081352303165e-05,0.12100034696414512
2.7682866303920665e-05,0.12220767742943975
3.072112998861759e-05,0.12343581134800898
3.409285069746814e-05,0.12461030055801256
3.783462617131933e-05,0.1257877919124536
4.1987070844439056e-05,0.12694257982369303
4.659525668664687e-05,0.1280744880149338
5.170920242896755e-05,0.12921830071681983
5.7384416483024044e-05,0.13031592641601333
6.368249944718586e-05,0.13145303882228482
7.067181273927492e-05,0.13253341288543757
7.842822061337681e-05,0.13366553174082432
8.703591361485166e-05,0.13474917008455906
9.658832241158708e-05,0.13587865294830875
0.00010718913192051276,0.13698640172494478
0.00011895340673703195,0.13811971488835703
0.0001320088400831418,0.13926981863448687
0.00014649713983072864,0.14041999964238105
0.0001625755666443795,0.14162641336058782
0.00018041864093920718,0.14281359850269723
0.00020022003718155845,0.14408607677144636
0.0002221946860939524,0.14533577914318488
0.0002465811075822604,0.1466815915512458
0.0002736439997074672,0.14802114267629143
0.00030367711180354605,0.14944763363165706
0.00033700643292719284,0.15090176591211552
0.0003739937302478798,0.15241861903413223
0.0004150404757850477,0.15400537540157644
0.00046059220411451084,0.1556254713792293
0.0005111433483440171,0.1573534355656852
0.0005672426068491978,0.15909158506526258
0.0006294988990221888,0.16095892657237246
0.0006985879746785249,0.16282838413519857
0.0007752597488629464,0.16482363607224243
0.000860346441668451,0.16683164151297358
0.0009547716114208065,0.16894145130047622
0.001059560179277617,0.17111795829582355
0.0011758495540521582,0.17345611918534606
0.0013049019780144017,0.17615349776595618
0.001448118227674533,0.17943374180358743
0.0016070528182616384,0.1837248071590069
0.0017834308769319094,0.18899385986461967
0.0019791668678535573,0.19573357595656993
0.002196385372416547,0.2078823677639113
0.002437444150122222,0.23690111438134698
0.002704959730463137,0.2943117227523333
0.0030018358135755923,0.3764737674149661
0.003331294787934677,0.46177515613465353
0.0036969127071950323,0.5163262024886642
0.00410265810582719,0.5018351203441307
0.004552935074866948,0.420943084022616
0.00505263106533568,0.3357934558242776
0.005607169938205458,0.29400073804921073
0.006222570836730231,0.2814152654132026
0.006905513520162331,0.26490275514385586
0.007663410868007463,0.2395267873643075
0.008504489341802686,0.2184768261371085
0.009437878277775391,0.2075185466298961
0.010473708979594508,0.20295661870243317
0.011623224686798541,0.2005401771354349
0.01289890261253308,0.19849102477708855
0.014314589375234785,0.19610629208740563
0.015885651294280528,0.1933972832287925
0.01762914118095948,0.1901651117769263
0.01956398343517065,0.18656199263242854
0.021711179456945052,0.18246625189605148
0.02409403560239527,0.1779833300333729
0.026738416158399492,0.17308404248010048
0.029673024081888724,0.16778805573699895
0.032929712550971546,0.16216864936779513
0.036543830709572546,0.15616899065768938
0.040554607358408275,0.1499359469267764
0.04500557675700498,0.14337850167472277
0.0499450511585514,0.13666290578178864
0.05542664520663107,0.12971741651453178
0.06150985788580504,0.12267402068027673
0.06826071834272393,0.11551987290432832
0.0757525025877192,0.1083222699656987
0.08406652885618333,0.10113677855067155
0.09329304026284696,0.0939679453551809
0.10353218432956637,0.08691882194475938
0.11489510001873086,0.07995845295398968
0.1275051240713013,0.07319983984346828
0.1414991297434576,0.06661150732077498
0.15702901247293774,0.06028153934529735
0.17426333860096507,0.05420276104814665
0.19338917504552322,0.04842063396996079
0.21461411978584058,0.04295751437528489
0.23816855519761607,0.037819223441559455
0.2643081486974108,0.03304538202660862
0.29331662783900486,0.02861880922898232
0.32550885998350565,0.02457689678654778
0.36123426997094304,0.020897897893733156
0.40088063288984643,0.017601752479819325
0.4448782831127585,0.014672850822052354
0.4937047852839004,0.012109184156450898
0.5478901179593945,0.009901551441798648
0.6080224261649427,0.008031365195689118
0.67475440531107,0.0064896456408007125
0.748810385759003,0.005250645312192366
0.8309941949353403,0.004299736930229145
0.9221978823334341,0.0036114681954218966
1.0234114021054528,0.0031648635349016212
1.135733358343105,0.0029375016008921367
1.2603829296797273,0.0029061698370579743
1.3987131026472386,0.003050228883807969
1.552225357427048,0.003348560961725496
1.7225859653987874,0.0037793705952447166
1.9116440753857036,0.0043248566614922076
2.121451784910632,0.004960318768239444
2.35428641432242,0.005668965435578977
2.612675225563332,0.006424726593235759
2.8994228538828812,0.007207436048233827
3.2176417502507353,0.007993406656438216
3.5707859649004625,0.008755557346921012
3.9626886387014784,0.00947530248042302
4.397603609302721,0.010119079803262373
4.880251583654434,0.01067258245719299
5.415871378079476,0.011101304954688005
6.010276782070388,0.01139104524437805
6.669919663030129,0.011514944047037715
7.401959996915652,0.011455690922230618
8.214343584919439,0.011201496519960953
9.115888299750837,0.010731060486486789
10.11637979766207,0.010046970723691801
11.226677735108158,0.009138394351461257
12.458833642950081,0.008032373793542519
13.826221737646593,0.006722503856147285
15.343684089300131,0.0051867526159159495
17.02769172225898,0.003466962831416753
18.896523396912116,0.0018332170919157207
20.970464013232306,0.0007066649646452562
23.27202478960412,0.00018889165835216852
25.826187606826746,3.4162919199896235e-05
28.66067616948256,4.135759494904941e-06
31.80625692794119,3.3361931464683887e-07
35.297073027306574,1.7899345249059233e-08
39.17101490809261,6.382417963889984e-10
43.47013158125035,1.512037106061441e-11
48.241087041653735,2.379659817542281e-13
53.535666774107185,2.487830031326621e-15
59.411339849650396,1.7277110174555653e-17
65.93188271333541,7.970076542605905e-20
73.16807143427206,2.442268610450572e-22
81.19844993184009,4.97122389327729e-25
90.11018251665037,6.721588822914081e-28
100.0,6.0369723673105516e-31
