tau,gamma
1e-07,6.457429824876935e-05
1.1097524964120721e-07,0.0003321129775382329
1.2315506032928263e-07,0.0011617702258809991
1.3667163564620074e-07,0.002850161274705247
1.5167168884709241e-07,0.0052048260130735996
1.6831803533309585e-07,0.007733599928773266
1.867913599020781e-07,0.010201359984960582
2.0729217795953698e-07,0.012606475427737221
2.300430119772917e-07,0.015005151271561414
2.5529080682395163e-07,0.01739846169096895
2.833096101839324e-07,0.019766809981709824
3.1440354715915e-07,0.022118021579653216
3.489101213406774e-07,0.024433727305476577
3.872038781812557e-07,0.02673553705053628
4.2970047043208437e-07,0.028997324853438235
4.768611697714474e-07,0.03123948786927603
5.291978735958437e-07,0.03344273861384776
5.872786613189477e-07,0.03561625616880867
6.517339604882421e-07,0.03775740099386987
7.232633896483533e-07,0.03985594269232016
8.026433522257174e-07,0.04192996324037686
8.907354638610439e-07,0.043950254237047265
9.884959046625586e-07,0.0459507004429852
1.096985797892384e-06,0.04789226033043167
1.217382727739662e-06,0.049811943888157934
1.3509935211980278e-06,0.05167578374080218
1.499268432786047e-06,0.053508262187365305
1.6638168860761274e-06,0.05529518292623669
1.8464249428955464e-06,0.057036347698859076
2.049074689815846e-06,0.05874548023385587
2.2739657523579273e-06,0.0603945656489581
2.523539170434766e-06,0.062022784499331594
2.800503894183631e-06,0.06358231885237985
3.107866187782014e-06,0.06512480962830579
3.4489622604057595e-06,0.06659945158313631
3.827494478516315e-06,0.06805125123620087
4.247571552536894e-06,0.06944591529086636
4.713753134116729e-06,0.07080383678364988
5.2310993080562585e-06,0.07212182103305725
5.805225516094895e-06,0.07338599460529859
6.44236350872137e-06,0.07462785352374851
7.149428986597577e-06,0.0758022421025726
7.934096665797492e-06,0.07696587797849606
8.804883581643465e-06,0.07805751083872216
9.771241535346501e-06,0.07913949158544856
1.0843659686896109e-05,0.08015665890514481
1.2033778407775906e-05,0.08115428879258522
1.3354515629298974e-05,0.08210435469962406
1.48202070579886e-05,0.08301771780856791
1.6446761779946626e-05,0.08390537627247419
1.8251834943190462e-05,0.08473856299482352
2.0255019392306664e-05,0.08556521083702323
2.2478058335487252e-05,0.08632623305371882
2.4945081352303165e-05,0.08709072179944194
2.7682866303920665e-05,0.0877901116312565
3.072112998861759e-05,0.08849062113159281
3.409285069746814e-05,0.08913920531275264
3.783462617131933e-05,0.08977555447307521
4.1987070844439056e-05,0.09038221212126643
4.659525668664687e-05,0.09095774829091709
5.170920242896755e-05,0.09152797402901179
5.7384416483024044e-05,0.09205032801708536
6.368249944718586e-05,0.09258612663747247
7.067181273927492e-05,0.09306652014557062
7.842822061337681e-05,0.09356764497556942
8.703591361485166e-05,0.09401895038301193
9.658832241158708e-05,0.0944851953343299
0.00010718913192051276,0.09492158682430242
0.00011895340673703195,0.09537420756947318
0.0001320088400831418,0.09592442987704945
0.00014649713983072864,0.09687364447232391
0.0001625755666443795,0.09907574443329879
0.00018041864093920718,0.10409751852546242
0.00020022003718155845,0.11409061441098621
0.0002221946860939524,0.12876070452616617
0.0002465811075822604,0.14367615148774412
0.0002736439997074672,0.15833646527541265
0.00030367711180354605,0.1883601586118849
0.00033700643292719284,0.25845508015807106
0.0003739937302478798,0.38148369047513286
0.0004150404757850477,0.5469608276919598
0.00046059220411451084,0.706785761674307
0.0005111433483440171,0.7750785521722193
0.0005672426068491978,0.7098241801888121
0.0006294988990221888,0.5634983867021517
0.0006985879746785249,0.408151031868686
0.0007752597488629464,0.2854971940453621
0.000860346441668451,0.21054196045762918
0.0009547716114208065,0.17265611176055468
0.001059560179277617,0.15068541005593414
0.0011758495540521582,0.13321183252581095
0.0013049019780144017,0.1200192893723955
0.001448118227674533,0.11228061445702656
0.0016070528182616384,0.10884416649756698
0.0017834308769319094,0.10788192555219164
0.0019791668678535573,0.10838495073566481
0.002196385372416547,0.10993786549317712
0.002437444150122222,0.1129162906018327
0.002704959730463137,0.11774924938491226
0.0030018358135755923,0.1245105769703012
0.003331294787934677,0.13300409190007706
0.0036969127071950323,0.14377629835825514
0.00410265810582719,0.1576957093414622
0.004552935074866948,0.17437099727507513
0.00505263106533568,0.19442431316239103
0.005607169938205458,0.2311656010615476
0.006222570836730231,0.316227230887955
0.006905513520162331,0.4610030277288059
0.007663410868007463,0.6045901824644762
0.008504489341802686,0.6559071828880759
0.009437878277775391,0.5939573881549812
0.010473708979594508,0.4617706616159999
0.011623224686798541,0.31373007305135664
0.01289890261253308,0.20206939039284275
0.014314589375234785,0.1472855962639909
0.015885651294280528,0.1288688464535968
0.01762914118095948,0.12048686289351045
0.01956398343517065,0.11288103353038335
0.021711179456945052,0.10665872794969297
0.02409403560239527,0.10260353431073627
0.026738416158399492,0.10000409117298
0.029673024081888724,0.0980807833231107
0.032929712550971546,0.09637605613823318
0.036543830709572546,0.09463438628913594
0.040554607358408275,0.09284968172237375
0.04500557675700498,0.09094071411493887
0.0499450511585514,0.08898484267464346
0.05542664520663107,0.08691342446411364
0.06150985788580504,0.08479440772586089
0.06826071834272393,0.08258471025432138
0.0757525025877192,0.08031920393860789
0.08406652885618333,0.07799533899401505
0.09329304026284696,0.07560746057072311
0.10353218432956637,0.07319245480852749
0.11489510001873086,0.070712732294653
0.1275051240713013,0.06822917389225845
0.1414991297434576,0.06569197803522084
0.15702901247293774,0.06316355380653574
0.17426333860096507,0.06060389805579645
0.19338917504552322,0.05805680984443756
0.21461411978584058,0.05550759487490746
0.23816855519761607,0.05297099321259866
0.2643081486974108,0.050461461981636424
0.29331662783900486,0.047966518912537344
0.32550885998350565,0.04552208153046547
0.36123426997094304,0.04309994203401589
0.40088063288984643,0.04074294234395901
0.4448782831127585,0.038422253560424155
0.4937047852839004,0.03617293541701563
0.5478901179593945,0.0339777629591212
0.6080224261649427,0.031854757131993545
0.67475440531107,0.029803450313163823
0.748810385759003,0.027823461397856273
0.8309941949353403,0.025928581790504737
0.9221978823334341,0.024105401807800884
1.0234114021054528,0.022374410537150006
1.135733358343105,0.020717703864919175
1.2603829296797273,0.019153894412681078
1.3987131026472386,0.01766826279313069
1.552225357427048,0.016271483649804866
1.7225859653987874,0.014956144954559946
1.9116440753857036,0.01372310257153682
2.121451784910632,0.012572227944986782
2.35428641432242,0.011496442696889084
2.612675225563332,0.010499949695653722
2.8994228538828812,0.009571616435229626
3.2176417502507353,0.008716117972484273
3.5707859649004625,0.007922136714690027
3.9626886387014784,0.007191802931419594
4.397603609302721,0.00651612767360378
4.880251583654434,0.005893382028650283
5.415871378079476,0.0053176901117245445
6.010276782070388,0.004783750456615301
6.669919663030129,0.0042882597283666665
7.401959996915652,0.0038237790971060418
8.214343584919439,0.0033884547608139517
9.115888299750837,0.0029740477949571
10.11637979766207,0.0025785259733523322
11.226677735108158,0.002195699915121273
12.458833642950081,0.0018251974729242735
13.826221737646593,0.0014604125122538848
15.343684089300131,0.0010890567584598322
17.02769172225898,0.0007114535530091467
18.896523396912116,0.0003713902283543327
20.970464013232306,0.00014228432680652868
23.27202478960412,3.793048225090751e-05
25.826187606826746,6.852392228585946e-06
28.66067616948256,8.291673389324082e-07
31.80625692794119,6.687388751575514e-08
35.297073027306574,3.5876449686679673e-09
39.17101490809261,1.279216811945975e-10
43.47013158125035,3.0305115391977166e-12
48.241087041653735,4.7694266547185666e-14
53.535666774107185,4.986216305053011e-16
59.411339849650396,3.462750108323727e-18
65.93188271333541,1.5973952750610543e-20
73.16807143427206,4.894893779990996e-23
81.19844993184009,9.963527956657378e-26
90.11018251665037,1.3471679831672994e-28
100.0,1.2099543768019315e-31
