tau,gamma
1e-07,6.817044680222499e-66
1.1097524964120721e-07,2.923247486903254e-61
1.2315506032928263e-07,8.326712915924213e-57
1.3667163564620074e-07,1.5755063580006455e-52
1.5167168884709241e-07,1.98018283167129e-48
1.6831803533309585e-07,1.6532136553921775e-44
1.867913599020781e-07,9.168351175019945e-41
2.0729217795953698e-07,3.3774743509578293e-37
2.300430119772917e-07,8.264782835838527e-34
2.5529080682395163e-07,1.343412571918139e-30
2.833096101839324e-07,1.4505274869673609e-27
3.1440354715915e-07,1.0403540368161036e-24
3.489101213406774e-07,4.956499910343929e-22
3.872038781812557e-07,1.5685850833617909e-19
4.2970047043208437e-07,3.2974694622301924e-17
4.768611697714474e-07,4.604631874404747e-15
5.291978735958437e-07,4.271247138442791e-13
5.872786613189477e-07,2.631907158917785e-11
6.517339604882421e-07,1.0773784065781137e-09
7.232633896483533e-07,2.930295501640993e-08
8.026433522257174e-07,5.297329881771475e-07
8.907354638610439e-07,6.370769919961601e-06
9.884959046625586e-07,5.108172603224386e-05
1.096985797892384e-06,0.00027452727172421317
1.217382727739662e-06,0.0010014493343100707
1.3509935211980278e-06,0.0025508868169025756
1.499268432786047e-06,0.004798935406378136
1.6638168860761274e-06,0.007273060207445946
1.8464249428955464e-06,0.00971184989835301
2.049074689815846e-06,0.01210371597215548
2.2739657523579273e-06,0.014506152848832235
2.523539170434766e-06,0.01693312289563336
2.800503894183631e-06,0.01936481810932715
3.107866187782014e-06,0.02181496054422332
3.4489622604057595e-06,0.024266779294011612
3.827494478516315e-06,0.026745151910730493
4.247571552536894e-06,0.029229514035240108
4.713753134116729e-06,0.03173897723112501
5.2310993080562585e-06,0.0342631336945703
5.805225516094895e-06,0.03680665887717258
6.44236350872137e-06,0.03937749267678084
7.149428986597577e-06,0.04195992724147089
7.934096665797492e-06,0.044581677716208364
8.804883581643465e-06,0.047209812333971736
9.771241535346501e-06,0.04988427691390196
1.0843659686896109e-05,0.05256639930468932
1.2033778407775906e-05,0.05529377339685284
1.3354515629298974e-05,0.05803818551843371
1.48202070579886e-05,0.060818597803720634
1.6446761779946626e-05,0.06363177637221742
1.8251834943190462e-05,0.06646684493862745
2.0255019392306664e-05,0.06935188141562906
2.2478058335487252e-05,0.07224559380215614
2.4945081352303165e-05,0.07520156600281161
2.7682866303920665e-05,0.07815997785150966
3.072112998861759e-05,0.08118256870472719
3.409285069746814e-05,0.0842122382647384
3.783462617131933e-05,0.08729543922553609
4.1987070844439056e-05,0.09040101909275096
4.659525668664687e-05,0.09353928923218666
5.170920242896755e-05,0.09672108509750257
5.7384416483024044e-05,0.09991107592366825
6.368249944718586e-05,0.10316348855748556
7.067181273927492e-05,0.1064045141618284
7.842822061337681e-05,0.10971603160867356
8.703591361485166e-05,0.11300887264530338
9.658832241158708e-05,0.11636373518229672
0.00010718913192051276,0.11970798929881867
0.00011895340673703195,0.12308899564773469
0.0001320088400831418,0.1264798019995281
0.00014649713983072864,0.12987121279326957
0.0001625755666443795,0.13329653514581644
0.00018041864093920718,0.13668588096999879
0.00020022003718155845,0.14012545605158802
0.0002221946860939524,0.14350337171440752
0.0002465811075822604,0.14692989521775304
0.0002736439997074672,0.150287803032449
0.00030367711180354605,0.15367009762183867
0.00033700643292719284,0.15699641144622198
0.0003739937302478798,0.16030350354062015
0.0004150404757850477,0.16357969636339273
0.00046059220411451084,0.16678425905000266
0.0005111433483440171,0.16998233723882222
0.0005672426068491978,0.17306206730766469
0.0006294988990221888,0.1761445905456526
0.0006985879746785249,0.17908079251300926
0.0007752597488629464,0.18200367339431975
0.000860346441668451,0.18477739174035815
0.0009547716114208065,0.18749462742973394
0.001059560179277617,0.19008169921487014
0.0011758495540521582,0.19255036015670549
0.0013049019780144017,0.19491733183509807
0.001448118227674533,0.1971009237175341
0.0016070528182616384,0.1992036157379702
0.0017834308769319094,0.2010724793649177
0.0019791668678535573,0.20285809349774486
0.002196385372416547,0.20438665242696719
0.002437444150122222,0.20579900983905278
0.002704959730463137,0.20696099501628284
0.0030018358135755923,0.20794719676195558
0.003331294787934677,0.20871058579561189
0.0036969127071950323,0.2092256732999699
0.00410265810582719,0.20954781794799646
0.004552935074866948,0.20955690177974623
0.00505263106533568,0.20939849098461
0.005607169938205458,0.20893641640246927
0.006222570836730231,0.2084446873265653
0.006905513520162331,0.20799728063958767
0.007663410868007463,0.20827477408214765
0.008504489341802686,0.21048067559420283
0.009437878277775391,0.217013670766246
0.010473708979594508,0.22930015002184248
0.011623224686798541,0.2420873095869021
0.01289890261253308,0.24371344630236663
0.014314589375234785,0.22962648141299635
0.015885651294280528,0.20974400990676956
0.01762914118095948,0.19437081548566026
0.01956398343517065,0.18509365490403834
0.021711179456945052,0.17880923511573776
0.02409403560239527,0.1735113803780253
0.026738416158399492,0.1684734811496264
0.029673024081888724,0.16348903295409334
0.032929712550971546,0.15846829157956221
0.036543830709572546,0.15325934798642238
0.040554607358408275,0.14795843568448944
0.04500557675700498,0.14246143929725064
0.0499450511585514,0.1369141018372131
0.05542664520663107,0.13122989834421656
0.06150985788580504,0.12552501953585513
0.06826071834272393,0.11976300607557978
0.0757525025877192,0.1140004302168847
0.08406652885618333,0.10826521541807889
0.09329304026284696,0.10255227781684358
0.10353218432956637,0.09694066985654792
0.11489510001873086,0.09138507095824787
0.1275051240713013,0.08598448713551965
0.1414991297434576,0.08068523384150098
0.15702901247293774,0.07557262473378709
0.17426333860096507,0.07061177187951206
0.19338917504552322,0.06585179141851392
0.21461411978584058,0.06128897640884946
0.23816855519761607,0.056931070391397554
0.2643081486974108,0.05280164080346359
0.29331662783900486,0.04887690584729706
0.32550885998350565,0.045193245466910954
0.36123426997094304,0.04171252775495122
0.40088063288984643,0.03846752127195949
0.4448782831127585,0.03542194016075929
0.4937047852839004,0.032593482001286284
0.5478901179593945,0.02995761867398829
0.6080224261649427,0.02751337475608347
0.67475440531107,0.025250367391774244
0.748810385759003,0.023152280258591416
0.8309941949353403,0.021219534777763182
0.9221978823334341,0.019427691470927273
1.0234114021054528,0.01778197153592689
1.135733358343105,0.016257532099899698
1.2603829296797273,0.014858616312001693
1.3987131026472386,0.013565651380700266
1.552225357427048,0.012378260468468136
1.7225859653987874,0.011284562441883982
1.9116440753857036,0.010278705003414441
2.121451784910632,0.009355821206115614
2.35428641432242,0.008506028108876747
2.612675225563332,0.007728840425835856
2.8994228538828812,0.007012915664386921
3.2176417502507353,0.006359060650107532
3.5707859649004625,0.005756927228144478
3.9626886387014784,0.005206268306927215
4.397603609302721,0.004699257380634086
4.880251583654434,0.004233528981508386
5.415871378079476,0.003804158450696151
6.010276782070388,0.003406769477326451
6.669919663030129,0.003038810751409204
7.401959996915652,0.002694823166813868
8.214343584919439,0.0023736442964830827
9.115888299750837,0.0020696514518218916
10.11637979766207,0.0017817607510965242
11.226677735108158,0.0015059280004790184
12.458833642950081,0.0012419141330639648
13.826221737646593,0.000985565810869735
15.343684089300131,0.0007291964594634168
17.02769172225898,0.00047343778141788076
18.896523396912116,0.0002462211218609238
20.970464013232306,9.415586908003935e-05
23.27202478960412,2.507967165504732e-05
25.826187606826746,4.529242198729995e-06
28.66067616948256,5.479788094388324e-07
31.80625692794119,4.419294973049849e-08
35.297073027306574,2.3708040993528062e-09
39.17101490809261,8.453299036380142e-11
43.47013158125035,2.002609818436893e-12
48.241087041653735,3.151707430261945e-14
53.535666774107185,3.294963144332435e-16
59.411339849650396,2.2882342780028774e-18
65.93188271333541,1.0555812955559827e-20
73.16807143427206,3.234614614225413e-23
81.19844993184009,6.584039213082555e-26
90.11018251665037,8.902275183540858e-29
100.0,7.995548384823686e-32
