tau,gamma
1e-07,7.463165697262196e-05
1.1097524964120721e-07,0.0003838534898771358
1.2315506032928263e-07,0.0013428838445853739
1.3667163564620074e-07,0.003295142999365323
1.5167168884709241e-07,0.006019846572072683
1.6831803533309585e-07,0.008950664855423703
1.867913599020781e-07,0.011818033158377641
2.0729217795953698e-07,0.014621944536336171
2.300430119772917e-07,0.017429345551792128
2.5529080682395163e-07,0.020243218436402675
2.833096101839324e-07,0.023043047175534424
3.1440354715915e-07,0.025839500597691176
3.489101213406774e-07,0.02861317983342977
3.872038781812557e-07,0.03139088110466098
4.2970047043208437e-07,0.034143724049201934
4.768611697714474e-07,0.03689750870019601
5.291978735958437e-07,0.039630692779965816
5.872786613189477e-07,0.04235633930790077
6.517339604882421e-07,0.04507197976627798
7.232633896483533e-07,0.04776787738009375
8.026433522257174e-07,0.05046607667104974
8.907354638610439e-07,0.053133761778330735
9.884959046625586e-07,0.05581248391484757
1.096985797892384e-06,0.05845645110777983
1.217382727739662e-06,0.061112170282111175
1.3509935211980278e-06,0.06373842769481183
1.499268432786047e-06,0.06636776592585633
1.6638168860761274e-06,0.06898180534068556
1.8464249428955464e-06,0.071583424995867
2.049074689815846e-06,0.07418832677099035
2.2739657523579273e-06,0.07676428013145438
2.523539170434766e-06,0.07935974014710266
2.800503894183631e-06,0.08191563586935825
3.107866187782014e-06,0.08449836123153606
3.4489622604057595e-06,0.08704214698280757
3.827494478516315e-06,0.08960754716292603
4.247571552536894e-06,0.09214725588819926
4.713753134116729e-06,0.09469182752478554
5.2310993080562585e-06,0.0972330779285572
5.805225516094895e-06,0.09975656118827095
6.44236350872137e-06,0.1023007609291724
7.149428986597577e-06,0.10480717033665898
7.934096665797492e-06,0.1073511637363846
8.804883581643465e-06,0.10984817622119805
9.771241535346501e-06,0.1123855665024589
1.0843659686896109e-05,0.11488235498543432
1.2033778407775906e-05,0.1174060952633214
1.3354515629298974e-05,0.11991030496942456
1.48202070579886e-05,0.12241563121631409
1.6446761779946626e-05,0.12493057391027318
1.8251834943190462e-05,0.12741715484090435
2.0255019392306664e-05,0.1299402854809256
2.2478058335487252e-05,0.13241268498722933
2.4945081352303165e-05,0.1349360072179077
2.7682866303920665e-05,0.1374021361236801
3.072112998861759e-05,0.13991449234192369
3.409285069746814e-05,0.14238246822635714
3.783462617131933e-05,0.14487295227563612
4.1987070844439056e-05,0.14734741664751314
4.659525668664687e-05,0.1498086723885416
5.170920242896755e-05,0.1522878881266523
5.7384416483024044e-05,0.15471801914591946
6.368249944718586e-05,0.15719286298684704
7.067181273927492e-05,0.15959511858035194
7.842822061337681e-05,0.16205044232288823
8.703591361485166e-05,0.16443062642123377
9.658832241158708e-05,0.16684860047320255
0.00010718913192051276,0.1692110002974377
0.00011895340673703195,0.17157528359835234
0.0001320088400831418,0.17391851777031234
0.00014649713983072864,0.1762177141207744
0.0001625755666443795,0.17853201323961407
0.00018041864093920718,0.18076104490736394
0.00020022003718155845,0.18302802832604873
0.0002221946860939524,0.18518675440944402
0.0002465811075822604,0.1873818905954622
0.0002736439997074672,0.18947128999644192
0.00030367711180354605,0.19156823053158947
0.00033700643292719284,0.1935854008412436
0.0003739937302478798,0.19556063050307698
0.0004150404757850477,0.1974943696217592
0.00046059220411451084,0.19933041482830766
0.0005111433483440171,0.20115903398020693
0.0005672426068491978,0.20284492667298204
0.0006294988990221888,0.20453720153938948
0.0006985879746785249,0.2060658715715196
0.0007752597488629464,0.20758491885385497
0.000860346441668451,0.20894834685448901
0.0009547716114208065,0.21025711993719406
0.001059560179277617,0.21144099624619425
0.0011758495540521582,0.21250744341269612
0.0013049019780144017,0.21348738458389854
0.001448118227674533,0.21428738116970827
0.0016070528182616384,0.21502829974502025
0.0017834308769319094,0.21554526792321002
0.0019791668678535573,0.21600440116308833
0.002196385372416547,0.21622579529611607
0.002437444150122222,0.21635854610308955
0.002704959730463137,0.21627061538484185
0.0030018358135755923,0.21603722492169847
0.003331294787934677,0.21562018968386074
0.0036969127071950323,0.2149909792775163
0.00410265810582719,0.2142169155420153
0.004552935074866948,0.21317407727544171
0.00505263106533568,0.21200752773829262
0.005607169938205458,0.21054291625183133
0.006222570836730231,0.20895601639897554
0.006905513520162331,0.20712247303010958
0.007663410868007463,0.20527199918701075
0.008504489341802686,0.2034784056253365
0.009437878277775391,0.20206086692680747
0.010473708979594508,0.20188147832838982
0.011623224686798541,0.20508348870489038
0.01289890261253308,0.21420044131969687
0.014314589375234785,0.22627614645154764
0.015885651294280528,0.2307587992761323
0.01762914118095948,0.22022347397885408
0.01956398343517065,0.20122726100896562
0.021711179456945052,0.18426955927022207
0.02409403560239527,0.17288490789198058
0.026738416158399492,0.1652515376585749
0.029673024081888724,0.15930505466403938
0.032929712550971546,0.1540105062310663
0.036543830709572546,0.14884282823664993
0.040554607358408275,0.14372598517304697
0.04500557675700498,0.13847931009174727
0.0499450511585514,0.13321131709047634
0.05542664520663107,0.12782522225719453
0.06150985788580504,0.12242658993393402
0.06826071834272393,0.11697237543838855
0.0757525025877192,0.11151190402075453
0.08406652885618333,0.10606440507156059
0.09329304026284696,0.10061950972353069
0.10353218432956637,0.09524775545708655
0.11489510001873086,0.08989976898719766
0.1275051240713013,0.08466838946703784
0.1414991297434576,0.07949681386888892
0.15702901247293774,0.07446751276417188
0.17426333860096507,0.06954419563226057
0.19338917504552322,0.06477619315735972
0.21461411978584058,0.0601613597270486
0.23816855519761607,0.05571002341549479
0.2643081486974108,0.05145078450788394
0.29331662783900486,0.04736461974317026
0.32550885998350565,0.04349545683129998
0.36123426997094304,0.03981248219858798
0.40088063288984643,0.036356559969522084
0.4448782831127585,0.033101361746402165
0.4937047852839004,0.03007155157275802
0.5478901179593945,0.027253936492602597
0.6080224261649427,0.024653007500042484
0.67475440531107,0.022268425091213514
0.748810385759003,0.0200885791959231
0.8309941949353403,0.018119794791033993
0.9221978823334341,0.016342190088855523
1.0234114021054528,0.01476139802927005
1.135733358343105,0.013356330757798926
1.2603829296797273,0.012127076928492728
1.3987131026472386,0.01105515125861939
1.552225357427048,0.010133886297890566
1.7225859653987874,0.009348043052416018
1.9116440753857036,0.008685536049625117
2.121451784910632,0.008133503942602186
2.35428641432242,0.007676475120804154
2.612675225563332,0.007303191664120407
2.8994228538828812,0.006996347917870575
3.2176417502507353,0.006746125694545327
3.5707859649004625,0.006534483164629599
3.9626886387014784,0.006352977176077133
4.397603609302721,0.006184173570074078
4.880251583654434,0.006020391486192043
5.415871378079476,0.005846773692559068
6.010276782070388,0.005655228003764207
6.669919663030129,0.005435605740545837
7.401959996915652,0.005178879097319123
8.214343584919439,0.004880900667454655
9.115888299750837,0.0045318413806663856
10.11637979766207,0.004132120092861778
11.226677735108158,0.003676226745767606
12.458833642950081,0.003172180182539076
13.826221737646593,0.0026156370722567783
15.343684089300131,0.001995167012449166
17.02769172225898,0.001323307079631309
18.896523396912116,0.0006966757297813167
20.970464013232306,0.00026799264638155954
23.27202478960412,7.156913002892986e-05
25.826187606826746,1.2939045364791814e-05
28.66067616948256,1.5661543874440138e-06
31.80625692794119,1.2632893161639382e-07
35.297073027306574,6.777625422854312e-09
39.17101490809261,2.41669094375838e-10
43.47013158125035,5.7252767190791685e-12
48.241087041653735,9.010484948096759e-14
53.535666774107185,9.420060515939497e-16
59.411339849650396,6.541900998262603e-18
65.93188271333541,3.0178337253144826e-20
73.16807143427206,9.247540096066815e-23
81.19844993184009,1.8823315022134696e-25
90.11018251665037,2.545099267809922e-28
100.0,2.28587233014964e-31
