tau,gamma
1e-07,8.22522636506167e-05
1.1097524964120721e-07,0.00042304414899647843
1.2315506032928263e-07,0.0014799525715420104
1.3667163564620074e-07,0.00363127587220766
1.5167168884709241e-07,0.0066331736377351225
1.6831803533309585e-07,0.009860718105067586
1.867913599020781e-07,0.013016148675325028
2.0729217795953698e-07,0.016098884669015528
2.300430119772917e-07,0.019182104748783322
2.5529080682395163e-07,0.02226857278452165
2.833096101839324e-07,0.02533503883995608
3.1440354715915e-07,0.028392784383864472
3.489101213406774e-07,0.03141989676369896
3.872038781812557e-07,0.03444538201025149
4.2970047043208437e-07,0.037437049333564724
4.768611697714474e-07,0.04042269553811258
5.291978735958437e-07,0.043378402483958085
5.872786613189477e-07,0.046317876585593734
6.517339604882421e-07,0.04923828253570515
7.232633896483533e-07,0.052128331143320376
8.026433522257174e-07,0.05501204260100995
8.907354638610439e-07,0.057853060448618474
9.884959046625586e-07,0.06069654282679539
1.096985797892384e-06,0.06349233581325216
1.217382727739662e-06,0.06629067892540498
1.3509935211980278e-06,0.06904685959517429
1.499268432786047e-06,0.0717956072840998
1.6638168860761274e-06,0.07451738107394253
1.8464249428955464e-06,0.07721459655841952
2.049074689815846e-06,0.07990473410821497
2.2739657523579273e-06,0.08255242336726497
2.523539170434766e-06,0.08521026452050227
2.800503894183631e-06,0.08781447783688355
3.107866187782014e-06,0.09043641999667383
3.4489622604057595e-06,0.09300585071175954
3.827494478516315e-06,0.09558720145252796
4.247571552536894e-06,0.09813070001050944
4.713753134116729e-06,0.10066821394324776
5.2310993080562585e-06,0.10319209776007275
5.805225516094895e-06,0.10568620140774643
6.44236350872137e-06,0.10819237916348097
7.149428986597577e-06,0.11064814898779393
7.934096665797492e-06,0.11313382205012842
8.804883581643465e-06,0.11556021218329098
9.771241535346501e-06,0.11801934763588418
1.0843659686896109e-05,0.12042681390096271
1.2033778407775906e-05,0.12285290828358726
1.3354515629298974e-05,0.12525020328278452
1.48202070579886e-05,0.1276393286968963
1.6446761779946626e-05,0.13003060774962777
1.8251834943190462e-05,0.1323835623296654
2.0255019392306664e-05,0.13476689001725614
2.2478058335487252e-05,0.13708954591407604
2.4945081352303165e-05,0.13945742611782388
2.7682866303920665e-05,0.1417589988116027
3.072112998861759e-05,0.1441008226492078
3.409285069746814e-05,0.1463905541293721
3.783462617131933e-05,0.14869613126947617
4.1987070844439056e-05,0.15097950417031816
4.659525668664687e-05,0.15324238809682944
5.170920242896755e-05,0.1555182280715348
5.7384416483024044e-05,0.15773755013496257
6.368249944718586e-05,0.15999711918104206
7.067181273927492e-05,0.16217713086590485
7.842822061337681e-05,0.1644056337907722
8.703591361485166e-05,0.16655296766072306
9.658832241158708e-05,0.1687330214732647
0.00010718913192051276,0.17085253821871763
0.00011895340673703195,0.17296840255664764
0.0001320088400831418,0.17505906557091594
0.00014649713983072864,0.17710007464191158
0.0001625755666443795,0.17915234509633476
0.00018041864093920718,0.18111417556155956
0.00020022003718155845,0.18310993318849453
0.0002221946860939524,0.1849930925737315
0.0002465811075822604,0.18690823113227048
0.0002736439997074672,0.18871420148328358
0.00030367711180354605,0.19052308324256811
0.00033700643292719284,0.19224944662421967
0.0003739937302478798,0.19392966240180368
0.0004150404757850477,0.19556599475367922
0.00046059220411451084,0.19710172671031337
0.0005111433483440171,0.1986279211390641
0.0005672426068491978,0.2000106880256522
0.0006294988990221888,0.20139845205561446
0.0006985879746785249,0.2026247096978184
0.0007752597488629464,0.20384155953483382
0.000860346441668451,0.20490756707353097
0.0009547716114208065,0.2059216859188559
0.001059560179277617,0.2068175866410428
0.0011758495540521582,0.20760226643056542
0.0013049019780144017,0.2083085825621765
0.001448118227674533,0.20884567963679151
0.0016070528182616384,0.2093339869202471
0.0017834308769319094,0.2096141924592332
0.0019791668678535573,0.20984895485787095
0.002196385372416547,0.20986354090810894
0.002437444150122222,0.20979917172427023
0.002704959730463137,0.20952371379315185
0.0030018358135755923,0.20910392402503164
0.003331294787934677,0.20849907983203816
0.0036969127071950323,0.20768197674072525
0.00410265810582719,0.20673968320489036
0.004552935074866948,0.20562456462748402
0.00505263106533568,0.20463963697305831
0.005607169938205458,0.2038602860223322
0.006222570836730231,0.20371209946566662
0.006905513520162331,0.20405618048068197
0.007663410868007463,0.2043455264343286
0.008504489341802686,0.20348691884864437
0.009437878277775391,0.2010708687709379
0.010473708979594508,0.19720622121624332
0.011623224686798541,0.19235139913802204
0.01289890261253308,0.1874698191752928
0.014314589375234785,0.18298618242937775
0.015885651294280528,0.17905514397693406
0.01762914118095948,0.17533534492732514
0.01956398343517065,0.17175319439319983
0.021711179456945052,0.16803823605821686
0.02409403560239527,0.16420713904092493
0.026738416158399492,0.1602070962612226
0.029673024081888724,0.15604781744255658
0.032929712550971546,0.15178257614510082
0.036543830709572546,0.14735339387839638
0.040554607358408275,0.14287655097033652
0.04500557675700498,0.1382544441556916
0.0499450511585514,0.13361754804473197
0.05542664520663107,0.1288702258072133
0.06150985788580504,0.12411443593065213
0.06826071834272393,0.11929735832835517
0.0757525025877192,0.11446613105345026
0.08406652885618333,0.10963023174870953
0.09329304026284696,0.10477758591594499
0.10353218432956637,0.09997152213325441
0.11489510001873086,0.09515827577967369
0.1275051240713013,0.09042762704862421
0.1414991297434576,0.08571463267523498
0.15702901247293774,0.08110287859389696
0.17426333860096507,0.07654586071572496
0.19338917504552322,0.07209607087631098
0.21461411978584058,0.06774250856743373
0.23816855519761607,0.06349751033727685
0.2643081486974108,0.059385560927515416
0.29331662783900486,0.05538614847195953
0.32550885998350565,0.051545356946487035
0.36123426997094304,0.047827359345673254
0.40088063288984643,0.04428028568974334
0.4448782831127585,0.04087167329501208
0.4937047852839004,0.03763533987573047
0.5478901179593945,0.03455437428463602
0.6080224261649427,0.03164079257114235
0.67475440531107,0.028895668857181173
0.748810385759003,0.026311346913390175
0.8309941949353403,0.02390111886048555
0.9221978823334341,0.021646013568770626
1.0234114021054528,0.019562157188894258
1.135733358343105,0.017628771510244678
1.2603829296797273,0.0158566917455531
1.3987131026472386,0.014229872251928182
1.552225357427048,0.012749937665115861
1.7225859653987874,0.011407543920978641
1.9116440753857036,0.01019563855231407
2.121451784910632,0.00910987141296814
2.35428641432242,0.008137753692508964
2.612675225563332,0.0072767368769142485
2.8994228538828812,0.006512563875708041
3.2176417502507353,0.005841829348478107
3.5707859649004625,0.0052510601051006175
3.9626886387014784,0.0047348000378996105
4.397603609302721,0.004281465966783688
4.880251583654434,0.0038836514735533464
5.415871378079476,0.003531837406720239
6.010276782070388,0.003217344750777822
6.669919663030129,0.0029326282441198685
7.401959996915652,0.0026686498896418493
8.214343584919439,0.0024198259476823905
9.115888299750837,0.0021772500685338673
10.11637979766207,0.0019366509793420133
11.226677735108158,0.0016915710697052893
12.458833642950081,0.0014413523278487073
13.826221737646593,0.0011800606835616042
15.343684089300131,0.0008975932425394571
17.02769172225898,0.0005949434153617089
18.896523396912116,0.0003132131184418251
20.970464013232306,0.00012049291279190537
23.27202478960412,3.217977486035572e-05
25.826187606826746,5.8179271883392254e-06
28.66067616948256,7.042135633378551e-07
31.80625692794119,5.680338251765477e-08
35.297073027306574,3.0475411264670908e-09
39.17101490809261,1.0866592609312575e-10
43.47013158125035,2.574357506508649e-12
48.241087041653735,4.0515442261110916e-14
53.535666774107185,4.2357091239028225e-16
59.411339849650396,2.9415511868111658e-18
65.93188271333541,1.3569622096528613e-20
73.16807143427206,4.158135807922878e-23
81.19844993184009,8.463861685107646e-26
90.11018251665037,1.1443982189935111e-28
100.0,1.027837403833998e-31
