tau,gamma,sigma_gamma
1e-07,-77205.0348850087,630876.6270860834
1.1357333583431052e-07,-79126.89875291663,605153.1380508081
1.289890261253308e-07,-80710.39399870823,578870.0253907399
1.4649713983072848e-07,-81910.24337825924,552147.224911153
1.6638168860761273e-07,-82681.53298591313,525117.6933541559
1.8896523396912115e-07,-82980.44624650059,497927.317184617
2.146141197858406e-07,-82765.0640789513,470734.7629045585
2.4374441501222217e-07,-81996.2236644181,443711.26226687443
2.7682866303920666e-07,-80638.42611107847,417040.30302028276
3.1440354715915e-07,-78660.78113277991,390917.15434476495
3.5707859649004626e-07,-76037.9746827685,365548.0862467338
4.0554607358408276e-07,-72751.24337582297,341149.03244030254
4.6059220411451036e-07,-68789.33753474487,317943.2875419599
5.231099308056258e-07,-64149.452881536796,296157.6258102257
5.94113398496504e-07,-58838.1093128151,276016.01949159027
6.7475440531107e-07,-52871.953928734976,257730.02888849247
7.663410868007462e-07,-46278.46457399524,241485.14249958587
8.703591361485166e-07,-39096.52967255069,227423.1479602758
9.884959046625586e-07,-31376.880141251386,215622.20229127145
1.1226677735108135e-06,-23182.34970744417,206078.3875494438
1.2750512407130129e-06,-14587.94107202909,198694.1768931069
1.448118227674533e-06,-5680.677085447664,193278.91730972668
1.6446761779946627e-06,3440.781539934367,189563.38343574022
1.8679135990207847e-06,12666.767464407181,187225.7888383918
2.1214517849106277e-06,21877.49876342414,185922.9568901826
2.409403560239527e-06,30944.239411434202,185319.65591204568
2.7364399970746718e-06,39730.73104880043,185111.2237540667
3.107866187782014e-06,48094.89357672811,185037.76383145578
3.52970730273065e-06,55890.78639933907,184890.6873004611
4.0088063288984645e-06,62970.8160711593,184513.56216725384
4.5529350748669476e-06,69188.16982214517,183799.34950904245
5.170920242896756e-06,74399.44804627712,182685.68373695127
5.872786613189489e-06,78467.46249157391,181149.30142182237
6.669919663030115e-06,81264.16072780479,179200.25014227608
7.5752502587719205e-06,82673.63164968046,176876.17478537746
8.603464416684509e-06,82595.14145842553,174236.77226983508
9.771241535346501e-06,80946.1449146447,171358.39530902664
1.1097524964120721e-05,77665.21282804858,168328.74346494692
1.2603829296797274e-05,72714.81389484064,165241.58695349898
1.4314589375234815e-05,66083.88724926079,162191.51501530252
1.6257556664437934e-05,57790.14158316389,159268.77849608927
1.8464249428955465e-05,47882.01750713083,156554.39440659163
2.0970464013232308e-05,36440.25205404917,154115.77883903778
2.3816855519761608e-05,23578.987908575233,152003.2442911396
2.7049597304631372e-05,9446.375098939941,150247.70531296445
3.072112998861759e-05,-5775.380507468202,148859.85933091614
3.489101213406774e-05,-21870.559560826165,147830.94907644065
3.962688638701478e-05,-38591.09078552347,147135.00236917747
4.5005576757004976e-05,-55658.34959807183,146732.24005905175
5.111433483440165e-05,-72765.6001478948,146573.2003166567
5.805225516094908e-05,-89581.07482760976,146603.08070690275
6.593188271333541e-05,-105751.67239852087,146765.84774668075
7.48810385759003e-05,-120907.2426465356,147007.77774324044
8.504489341802686e-05,-134665.41220221858,147280.2320696269
9.658832241158708e-05,-146636.8931209919,147541.5995254692
0.00010969857978923841,-156431.2033304266,147758.43741636575
0.00012458833642950082,-163662.7164184886,147905.9056903836
0.00014149912974345758,-167956.94776212337,147967.61930497203
0.00016070528182616402,-168956.9749693776,147935.05183451087
0.00018251834943190442,-166329.88329953657,147806.61724751224
0.0002072921779595372,-159773.12137510354,147586.5439008393
0.00023542864143224178,-149020.64931171457,147283.6396842066
0.00026738416158399495,-133848.76052957686,146910.03225833498
0.00030367711180354605,-114081.46008632611,146479.95425674334
0.000344896226040576,-89595.28644665607,146008.6300553047
0.00039171014908092607,-60323.470182015735,145511.30779892424
0.00044487828311275856,-26259.33211665909,145002.4673760972
0.0005052631065335685,12541.165210613632,144495.22179693184
0.0005738441648302398,55957.78539524716,144000.91617346142
0.0006517339604882427,103805.36252860865,143528.91579797294
0.0007401959996915645,155834.16221978387,143086.56347822267
0.0008406652885618334,211731.28107302263,142679.2771823747
0.0009547716114208065,271123.0871437129,142310.75290223488
0.0010843659686896108,333578.6841109564,141983.23487935908
0.0012315506032928262,398614.36203870934,141697.81598906888
0.0013987131026472386,465698.97809454065,141454.7347838226
0.0015885651294280528,534260.1919009902,141253.64177718916
0.0018041864093920718,603691.4627452818,141093.81515294904
0.0020490746898158504,673359.7000840184,140974.31429068864
0.002327202478960412,742613.4450332073,140894.06748118496
0.0026430814869741084,810791.4491704963,140851.897286979
0.0030018358135755923,877231.508284076,140846.49270650742
0.0034092850697468144,941279.4029079448,140876.3413677795
0.003872038781812557,1002297.7947459584,140939.6373266814
0.004397603609302721,1059674.9284939242,141034.18076735034
0.00499450511585514,1112832.9921302993,141157.28519814994
0.005672426068491977,1161235.99539535,141305.70589258554
0.006442363508721383,1204397.03577209,141475.60067082342
0.0073168071434272074,1241884.8336034066,141662.5309840003
0.008309941949353404,1273329.4327425421,141861.50796196505
0.009437878277775391,1298426.97999151,142067.08487125728
0.010718913192051286,1316943.5151339313,142273.49448052363
0.012173827277396621,1328717.7231727007,142474.82725676737
0.013826221737646563,1333662.6209649914,142665.24413423624
0.015702901247293774,1331766.1713155778,142839.21577423823
0.017834308769319095,1323090.8382469823,142991.7786903026
0.020255019392306665,1307772.1171220732,143118.79724899912
0.023004301197729216,1286016.0920838392,143217.21930575673
0.02612675225563332,1258096.0904636122,143285.31205308952
0.029673024081888724,1224348.5190049084,143322.86358530048
0.033700643292719316,1185167.979622588,143331.33482928362
0.03827494478516315,1141001.772698603,143313.94606022778
0.043470131581250265,1092343.9034105246,143275.68249954763
0.049370478528390035,1039728.7111782266,143223.20483748108
0.05607169938205458,983724.2439579079,143164.65331093388
0.06368249944718586,924925.4978513531,143109.3385496703
0.07232633896483548,863947.6384500178,143067.31900438826
0.08214343584919438,801419.3136901158,143048.8733958384
0.09329304026284696,737976.1590153694,143063.88694037843
0.1059560179277617,674254.5846473493,143121.1813793755
0.12033778407775905,610885.9221163711,143227.82989961075
0.13667163564620075,548490.9933150639,143388.507373369
0.1552225357427048,487675.15063269273,143604.93234532763
0.1762914118095948,429023.82165522675,143875.45839645283
0.20022003718155845,373098.5769175752,144194.86801998757
0.2273965752357932,320433.72469956544,144554.41184347493
0.258261876068268,271533.42327034613,144942.12076034344
0.29331662783900486,226869.28867230704,145343.39988826364
0.3331294787934677,186878.46541347005,145741.89330223715
0.3783462617131933,151962.11856739782,146120.58918833436
0.42970047043208437,122484.29895961727,146463.11791865257
0.48802515836544336,98771.12847798388,146755.18125915344
0.5542664520663108,81110.25013907789,146986.0393256793
0.6294988990221888,69750.4873595389,147149.97217823652
0.7149428986597591,64901.658836240415,147247.6239909468
0.8119844993184026,66734.49938240368,147287.12870297185
0.9221978823334341,75380.64278780296,147284.90693931998
1.0473708979594507,90932.63000777387,147266.016276264
1.1895340673703207,113443.91443146835,147263.93411058487
1.350993521198028,142928.84529614402,147319.66029959632
1.5343684089300131,179362.6201404489,147480.05302848844
1.7426333860096508,222681.2071556754,147795.36387619373
1.9791668678535574,272781.24803110864,148316.02150300425
2.24780583354873,329519.9610438738,149088.82472299872
2.552908068239522,392715.0723848669,150152.8299490701
2.8994228538828812,462144.8107459765,151535.32741481025
3.2929712550971546,537548.0057685652,153248.36065933283
3.7399373024788014,618624.3348690611,155286.2258185929
4.247571552536903,705034.7650711922,157624.2831763116
4.824108704165374,796402.23670278,160219.24371189796
5.478901179593945,892312.634137287,163010.90205157248
6.222570836730231,992316.0852175739,165925.12448717302
7.067181273927506,1095928.6256923608,168877.80306566533
8.02643352225719,1202634.2580814266,171779.4653738589
9.115888299750837,1311887.4260702508,174540.271797587
10.353218432956616,1423115.91606843,177075.21158546716
11.758495540521581,1535724.187233174,179309.39843832937
13.354515629299028,1649097.1203689864,181183.4440447505
15.167168884709241,1762604.1649929322,182658.93972074328
17.22585965398791,1875603.8528316524,183724.09168634706
19.56398343517065,1987448.6354178179,184399.52253722993
22.219468609395285,2097489.9935907843,184744.15138485417
25.23539170434766,2205083.7578664618,184860.8701729142
28.66067616948256,2309595.5710805426,184901.41234936568
32.550885998350566,2410406.418643864,185069.34875959877
36.96912707195032,2506918.1473510196,185619.59725681145
41.98707084443923,2598558.891076719,186852.39270538697
47.68611697714474,2684788.320950922,189099.7311950755
54.15871378079487,2765102.6387428325,192703.3987582873
61.50985788580504,2839039.2351732743,197986.09594365399
69.85879746785264,2906180.9396329694,205220.30944441346
79.34096665797492,2966159.7941822745,214601.82425387957
90.11018251665037,3018660.2925769957,226234.29625833163
102.34114021054528,3063422.0341994506,240127.79959754396
116.23224686798542,3100241.752940443,256209.59908761535
132.00884008314222,3128974.692020613,274342.19348938076
149.9268432786047,3149535.307189786,294343.1783399281
170.27691722259047,3161897.2924249084,316003.018374826
193.38917504552322,3166092.933887822,339098.93246523465
219.63853724165514,3162211.8092387384,363404.7248300093
249.45081352303166,3150398.86018135,388697.245546522
283.309610183933,3130851.8761143186,414760.400900806
321.76417502507354,3103818.4357817303,441387.5429668875
365.4383070957262,3069592.3616837147,468382.86274894455
415.04047578504895,3028509.7485934836,495562.2066614894
471.3753134116729,2980944.632731357,522753.57483724237
535.356667741074,2927304.37190873,549797.447422879
608.0224261649427,2868024.8092527944,576547.0130926233
690.5513520162344,2803565.2939677024,602868.3311048978
784.2822061337682,2734403.6320264796,628640.434551514
890.7354638610458,2661031.0377965365,653755.370812492
1011.6379797662071,2583947.154484326,678118.1707818444
1148.951000187311,2503655.207067888,701646.7380631763
1304.901978014407,2420657.346215248,724271.6511293305
1482.02070579886,2335450.2357201693,745935.8742428807
1683.180353330962,2248520.929392641,766594.376067614
1911.6440753857037,2160343.076290942,786213.6579792616
2171.1179456945097,2071373.4858467302,804771.1968938707
2465.811075822604,1982049.076980519,822254.8098655374
2800.5038941836365,1892784.2278906466,838661.9497117583
3180.625692794119,1803968.5359702418,853998.9424906573
3612.342699709438,1715964.9903962146,868280.1787857458
4102.65810582719,1629108.553456578,881527.2714691848
4659.525668664687,1543705.14073522,893768.1929395212
5291.978735958458,1460030.9849339065,905036.4047951768
6010.2767820703875,1378332.3634391122,915369.992544442
6826.071834272407,1298825.6657747654,924810.8173029833
7752.597488629464,1221697.7738426258,933403.6955293542
8804.883581643482,1147106.7253421422,941195.6167381441
10000.0,1075182.628969145,948235.0078508274
