tau,gamma,sigma_gamma
1.5915494309189534e-05,-0.000968762884059852,0.030786948631328262
1.7662259541255212e-05,-0.0010444420027739302,0.030550762402437245
1.9600736618185914e-05,-0.0011225205789340555,0.030280970456456578
2.175196639354731e-05,-0.00120240079566258,0.029974901754848265
2.4139299007110626e-05,-0.0012833587061173125,0.029630185390473317
2.6788647334778468e-05,-0.0013645409251395204,0.02924489330002787
2.972876825527301e-05,-0.0014449647481580856,0.028817696413297525
3.2991574786545186e-05,-0.0015235222727010738,0.028348029559043558
3.661248247993406e-05,-0.0015989890143803768,0.027836258836373803
4.0630793831950074e-05,-0.0016700373861496499,0.027283843467075873
4.509012488621082e-05,-0.0017352552479988224,0.026693482386780758
5.0038878656004554e-05,-0.0017931695378251883,0.02606923402542734
5.55307705061618e-05,-0.0018422747697087538,0.025416595899797664
6.162541119689893e-05,-0.0018810659427365478,0.02474252887975187
6.838895391817905e-05,-0.0019080751538672167,0.024055409515042106
7.58948123377093e-05,-0.0019219109659949676,0.02336489308631256
8.422445745649861e-05,-0.0019212993623255728,0.02268167091405306
9.34683019213017e-05,-0.001905124935457107,0.02201710923005985
0.00010372668139256173,-0.0018724708281752686,0.021382765271550964
0.00011511094361993503,-0.0018226558747855403,0.020789790794796717
0.00012774465704657218,-0.0017552673954749419,0.020248254418603152
0.00014176495206073746,-0.0016701881763313917,0.019766440030284514
0.00015732400945314112,-0.001567616324208583,0.019350203054980614
0.0001745907122361798,-0.001448076913669863,0.019002480356684667
0.00019375247875446226,-0.0013124246330673075,0.018723043138426338
0.00021501729698379145,-0.0011618369744460396,0.018508550664149543
0.00023861598209953821,-0.0009977978800534532,0.01835291092371184
0.0002648046818187808,-0.0008220721371899004,0.01824789726556736
0.00029386765670999645,-0.0006366711824897273,0.018183925816630163
0.0003261203656486841,-0.0004438113165460204,0.018150880029176704
0.00036191288990944495,-0.0002458656221031219,0.018138877703014655
0.00040163373306071395,-4.531110901993341e-05,0.018138904115814068
0.0004457140379074271,0.00015532723382915745,0.0181432701539641
0.0004946322662536722,0.0003535337215171525,0.01814588621027636
0.0005489193922809734,0.0005468588344982287,0.01814236564799172
0.0006091646659128077,0.0007329739797965472,0.018129984989899716
0.0006760220087227636,0.0009097226184505287,0.0181075335640487
0.0007502171118095905,0.0010751664265778518,0.018075085816687646
0.0008325553126817477,0.00122762539951876,0.018033727210213943
0.0009239303366497019,0.0013657110760362727,0.01798526108316657
0.001025333997607853,0.0014883523364987898,0.017931919832042696
0.0011378669635014843,0.0015948135002378395,0.017876099538662645
0.0012627507033305964,0.0016847046995973503,0.01782013272109798
0.0014013407453672294,0.0017579847308759984,0.017766109205253858
0.0015551413904952365,0.0018149567677576664,0.01771575027328248
0.0017258220403758298,0.0018562574665203068,0.0176703364712373
0.001915235317670051,0.001882840093099167,0.017630685104274305
0.002125437175000907,0.0018959523616644538,0.017597169907508654
0.002358709210924279,0.0018971096969274382,0.01756977298332142
0.0026175834351333674,0.001888064623968063,0.017548158014009607
0.0029048697517061414,0.0018707729572742114,0.017531753963669513
0.0032236864587078034,0.0018473574127719009,0.01751983975890736
0.003577494095200777,0.0018200692107430822,0.01751162244112034
0.00397013300304851,0.0017912481809308502,0.017506303625936658
0.004405865011221041,0.0017632818300623693,0.01750313143289031
0.0048894196950571515,0.0017385637913867591,0.01750143709085008
0.0054260457125960265,0.0017194520490122042,0.0175006570195945
0.006021567775199456,0.0017082273186175534,0.017500342275052268
0.006682449870842083,0.001707051970724085,0.01750015784583661
0.007415865426315531,0.0017179299019091298,0.017499874475642878
0.008229775169909635,0.0017426677906283753,0.017499355560456318
0.009133013539717303,0.0017828382141629137,0.01749854133778744
0.01013538457546652,0.0018397451473287027,0.01749743214532425
0.011247768334720383,0.001914392407195881,0.017496072059623894
0.0124822389885206,0.0020074556461595412,0.017494533792215154
0.013852195878322836,0.0021192585233218305,0.01749290535975041
0.015372508956757782,0.0022497536966167714,0.017491278775548975
0.01705968019087887,0.0023985092712785344,0.017489740833587158
0.018932022679819402,0.0025647013106845796,0.017488365960646082
0.021009859431059548,0.0027471129607550466,0.017487211076563418
0.02331574395288505,0.0029441406574705863,0.017486312400376357
0.02587470505741886,0.0031538077783566853,0.017485684145644432
0.028714518531396612,0.003373785963913474,0.017485319039684845
0.0318660086234881,0.003601424176185747,0.01748519056461399
0.03536338262060454,0.0038337853825172697,0.0174852567481985
0.039244602144791176,0.004067690557818426,0.017485465234649684
0.043551795200880566,0.004299769494339431,0.017485759253291606
0.04833171344740451,0.004526517700891783,0.01748608399603995
0.05363623965413002,0.004744358471331325,0.017486392834560507
0.05952295085432696,0.00494970901296466,0.017486652774656254
0.06605574330440243,0.005139049357493284,0.01748684857295474
0.07330552603441562,0.005308992637971654,0.017486985034873045
0.08135099051749288,0.005456355212095958,0.017487087168635333
0.09027946481238244,0.0055782250508882615,0.017487198073538445
0.10018786145028723,0.005672026796903142,0.01748737466953845
0.11118372935464306,0.005735581930028965,0.01748768160273643
0.1233864212117193,0.005767162562273994,0.01748818386011441
0.13692838896305695,0.005765537513903402,0.01748893877327689
0.15195662148143568,0.005730009497998146,0.017489988168850317
0.16863424003536756,0.00566044245292607,0.01749135142644029
0.18714226885980173,0.005557278304507125,0.017493020138299748
0.20768160005138378,0.005421542702530655,0.017494954942402958
0.23047517411587662,0.0052548395494950145,0.01749708494338292
0.2557703998361011,0.00505933441233947,0.01749930996705873
0.283841839726427,0.0048377271700746505,0.017501505734890576
0.31499419022259767,0.004593214491938317,0.017503531908659043
0.34956558895482687,0.004329442953709492,0.017505242847110677
0.3879312850023754,0.004050453777639925,0.01750650082846071
0.43050771196772913,0.003760620319832537,0.017507191409035717
0.4777570080808367,0.0034645795259451275,0.017507240486250943
0.5301920323960712,0.0031671586324211955,0.017506632489658242
0.58838193152933,0.0028732984089944054,0.01750542891798026
0.6529583173584296,0.0025879742239981983,0.017503786164951227
0.7246221227415434,0.0023161161737043777,0.017501971241115622
0.8041512096678427,0.0020625294582835877,0.017500373631925224
0.892408812421676,0.001831816118267104,0.017499511186811555
0.9903529074050875,0.0016282991746318673,0.017500027683866118
1.0990466113217496,0.0014559501499916425,0.01750267965273508
1.2196697205875398,0.0013183208935232847,0.017508310265709957
1.353531517220237,0.0012184805918304497,0.017517808719496136
1.5020849802075775,0.0011589588231764561,0.01753205459722662
1.6669425566084373,0.0011416955019997867,0.017551848239801646
1.849893663571735,0.0011679985603028162,0.017577830107841343
2.0529241112456025,0.0012385102158560264,0.01761039432374413
2.278237657399342,0.0013531826756057012,0.017649603790733548
2.528279927718911,0.0015112641061764912,0.01769511615740659
2.8057649614145945,0.00171129566120841,0.017746131069661455
3.1137046702753675,0.001951120276981979,0.017801369309593598
3.455441530928017,0.0022279038241103913,0.017859093367164038
3.8346848651533194,0.002538169026981143,0.017917176705680157
4.255551102057486,0.0028778423302360896,0.017973225633358517
4.72260845911744,0.0032423136029596372,0.018024753590237884
5.240926527082348,0.0036265082309833324,0.01806940316881001
5.816131296941876,0.004024970765181175,0.018105206630845017
6.45446622624163,0.004431958882901261,0.018130871263422374
7.162860007579055,0.004841545999083696,0.01814607168832239
7.949001774861049,0.005247730454882403,0.0181517271523295
8.821424563636043,0.005644548838660753,0.018150237852305417
9.789597931405872,0.006026190681675261,0.018145650673390745
10.864030743248122,0.0063871115421699366,0.01814372199256527
12.056385238417104,0.0067221413677177174,0.018151844787788016
13.379603616039038,0.007026585022630219,0.01817881137507854
14.84804851390331,0.00729631199517064,0.018234394370098102
16.477658905151753,0.007527832560916369,0.018328749158174402
18.28612310501873,0.007718358068706325,0.018471671222043965
20.29307076549301,0.00786584352082909,0.01867177681488665
22.520285941872707,0.007969011218479484,0.018935706298475435
24.99194354390693,0.008027354909497988,0.019267463698378305
27.734871738040287,0.008041124575564555,0.01966799396113415
30.778843148958835,0.008011292695044856,0.02013506024191858
34.156898021232664,0.007939503479766755,0.020663427914161932
37.90570284875552,0.007828007175215842,0.021245307664512728
42.065948364660635,0.007679582004252981,0.021870973259172876
46.68279121162346,0.0074974467009232305,0.022529457722277692
51.80634408658257,0.007285166807386994,0.02320924185358195
57.49221968006779,0.0070465579862117765,0.02389887208129351
63.8021343142265,0.006785589533833919,0.024587470800953953
70.80457783163119,0.006506291079008046,0.02526512485458431
78.57555700605558,0.0062126651300176096,0.02592315382389287
87.19942054443925,0.005908607719743601,0.026554269406989624
96.76977463487759,0.005597838915834313,0.02715264177782116
107.39049897828905,0.005283844443610241,0.027713890211755642
119.17687433209433,0.0049698291413035655,0.02823501480605755
132.25683380462948,0.0046586824580990135,0.028714284770212855
146.7723514822441,0.00435295573894267,0.02915109704462149
162.88098346169014,0.0040548506351521,0.029545817189614416
180.75757801466406,0.0037662176499044823,0.02989961267794679
200.59617344717336,0.0034885635803234795,0.030214286959915734
222.61210425370965,0.0032230664551556078,0.030492120966223803
247.04433842709872,0.0029705964859107242,0.030735727086077195
274.15807129394165,0.0027317415426373406,0.030947919131392224
304.24760402997055,0.0025068357228526595,0.031131600403499687
337.6395380996514,0.0022959896911400827,0.031289670748662096
374.69632029350714,0.0020991216141923496,0.03142495245062103
415.8201768421369,0.0019159876882696798,0.031540133980424274
461.4574793090707,0.0017462114406635422,0.03163773001192599
512.1035896512623,0.0015893111727913083,0.03172005570878623
568.3082370370716,0.001444725090871358,0.031789213077131354
630.6814847834339,0.0013118338337303386,0.03184708712993917
699.9003521792881,0.0011899802512894714,0.03189534969178371
776.7161630706536,0.0010784864088008886,0.03193546885088471
861.9627009712639,0.0009766678898672347,0.03196872230568356
956.5652592169525,0.0008838455460656212,0.031996213125272836
1061.5506843970738,0.0007993548941334323,0.03201888672204744
1178.0585220775965,0.0007225533954790804,0.032037548102007166
1307.3533857951288,0.0006528258700573956,0.03205287870026936
1450.8386835789192,0.0005895883004053376,0.03206545231897001
1610.0718509929065,0.0005322902748607137,0.032075749858722864
1786.7812560421874,0.00048041630449105504,0.032084172673436266
1982.8849594351113,0.00043348622854812245,0.032091054484153426
2200.5115338310698,0.00039105490047517153,0.03209667186467871
2442.0231680525826,0.000352711322375737,0.03210125336471107
2710.041307042465,0.0003180773717624726,0.03210498736973454
3007.475105870217,0.0002868062413417251,0.03210802881542199
3337.553006636627,0.00025858069123531715,0.032110504881676265
3703.8577810226216,0.00023311119381052103,0.032112519790926455
4110.365418845124,0.00021013403438289183,0.03211415882954362
4561.488284729238,0.0001894094165104613,0.03211549170227716
5062.123011332681,0.00017071960832957628,0.032116575318957
5617.703648971452,0.0001538671562297818,0.032117456101442635
6234.260648549263,0.00013867318391793524,0.03211817188766676
6918.486318011103,0.00012497578834725712,0.032118753499089825
7677.80746280557,0.00011262853884883019,0.03211922602822527
8520.465998819702,0.00010149908187326697,0.032119609894244866
9455.608412784362,9.14678508188327e-05,0.03211992170706229
10493.385041182417,8.242687830108724e-05,0.032120174973691185
11645.060245265304,7.427870674443699e-05,0.03212038067501236
12923.134678052123,6.693539220828754e-05,0.032120547736276164
14341.480970437791,6.0317595783336645e-05,0.03212068341061123
15915.494309189533,5.4353756611304296e-05,0.03212079359141556
