freq,Zreal,Zimag,sigma_im
999.0404050000001,0.11471101773152048,0.0019847140780217018,5.02112606158618e-07
891.425842,0.11450135257110591,0.0017650949660178035,4.0426407432218465e-07
794.237671,0.11431514556241909,0.0015238347783202615,3.287701443764107e-07
707.50946,0.11415766803641701,0.0012659785284635872,2.7355966097410314e-07
631.009521,0.11403257365522113,0.0009979595023904798,2.3546215042697558e-07
562.339172,0.11393911738660635,0.0007185980700062898,2.1017565931078996e-07
500.80123899999995,0.11387902123225191,0.00043159967058710664,1.946221133306468e-07
446.85879500000004,0.11385347387810774,0.0001471403200990763,1.8611327340235926e-07
397.582581,0.11386157808905055,-0.00014309125511299293,1.8190997265927716e-07
354.659485,0.11390224788510181,-0.00042204012133042145,1.803622501650419e-07
316.315765,0.11397406216078139,-0.0006934185380585775,1.8002349932525957e-07
281.894287,0.11407593668604699,-0.0009556999943702255,1.8004063502259724e-07
251.044281,0.11420603957985022,-0.0012059082715492734,1.7993028368907784e-07
223.640198,0.11436071995649287,-0.0014397157081475257,1.7949527467341337e-07
199.29838600000002,0.1145368229781535,-0.0016555831242996313,1.7873619749899346e-07
177.556778,0.11473226630428238,-0.0018536279970846167,1.7775341769570217e-07
158.629395,0.11493829532496093,-0.002028615385944142,1.767158140879791e-07
141.31134,0.1151623125623381,-0.002189221605571735,1.7570062803292673e-07
125.84568,0.11539690263696314,-0.002331397281116307,1.7482788272416037e-07
112.189957,0.11563647855901767,-0.0024543775632667668,1.7415538868913618e-07
99.9040375,0.11588299490154017,-0.0025615311781855463,1.736768751945946e-07
89.0031662,0.11613085046903156,-0.0026526197874786584,1.7337434798700272e-07
79.3147354,0.11637832711529615,-0.0027295034316480657,1.7320117050420494e-07
70.83874509999998,0.11661957365195398,-0.0027930511972939576,1.7310802445231684e-07
63.004020700000005,0.11686678530644279,-0.0028485023630012664,1.7304601816109184e-07
56.2418137,0.11710222347806538,-0.002894046863659148,1.729863374528456e-07
50.0801239,0.11733784896998965,-0.002934388368395227,1.7290534976365642e-07
44.614521,0.11756688359301802,-0.0029704842064411765,1.727973416032152e-07
39.7582626,0.11778933079949613,-0.0030046025267160712,1.7266553851903996e-07
35.419357299999994,0.11800634379707012,-0.0030391296106279083,1.7251896554135031e-07
31.5869217,0.11821560089984157,-0.0030758180298117756,1.7237192319074434e-07
28.1700668,0.11841947086285752,-0.0031170881875129397,1.7223521225394308e-07
25.1044273,0.1186199790980322,-0.003165373511044408,1.721177642574854e-07
22.3853874,0.11881582006235311,-0.003222189078869512,1.7202715304036105e-07
19.929845800000002,0.11901189785596415,-0.003290717998650226,1.7196457350680896e-07
17.755678200000002,0.1192060261128282,-0.003371657580252695,1.7193083617714386e-07
15.8361454,0.11939938584449428,-0.0034661088844055144,1.7192243672866736e-07
14.1189728,0.119596613346316,-0.003576623003931362,1.719348871928652e-07
12.573761900000001,0.11980158214029234,-0.003705481854016205,1.719642835976414e-07
11.224855400000001,0.1200105809223941,-0.0038493246204600183,1.7200572595506747e-07
9.990410800000001,0.12023670698680657,-0.004015719368330801,1.7205844931701559e-07
8.89805984,0.12047623943887482,-0.004199960386048833,1.721192500865318e-07
7.93953419,0.12072963178932059,-0.0043992602353426094,1.721862588538174e-07
7.07654047,0.12100642315706354,-0.004617567594405007,1.7226035897667177e-07
6.30040264,0.1213104951605999,-0.004853837324800741,1.7234062935519133e-07
5.61242723,0.12164081657648453,-0.0051026849350240405,1.724239407701599e-07
5.00801229,0.12199605967775749,-0.0053585814112342665,1.7250611647026612e-07
4.45918846,0.12239069241369346,-0.005626866999892263,1.7258517680622826e-07
3.98190546,0.12280926401791414,-0.005892261052181621,1.726520805897652e-07
3.54791069,0.12327147365849174,-0.006162423404702008,1.7270355715832755e-07
3.16039586,0.12377131760813101,-0.006428245938597678,1.7273210422329106e-07
2.81430078,0.12430918088630943,-0.006684972940341795,1.727327667019503e-07
2.51044273,0.12487392504487531,-0.006923400496214491,1.7270373413225853e-07
2.23853803,0.12547357204910012,-0.007143411747224006,1.7264586413074311e-07
1.99095273,0.1261181474979703,-0.007343696766148612,1.725615663512065e-07
1.77395499,0.1267803344083329,-0.007512147486057077,1.7246193184939925e-07
1.58083737,0.1274647166284576,-0.007648063686231785,1.7235694912338542e-07
1.41121697,0.1281564072864478,-0.007747218792445002,1.7226044799423564e-07
1.25805092,0.12886911996415137,-0.007810091272205663,1.7218209674783954e-07
1.11926901,0.1296012528352234,-0.007833661122613654,1.7213339534402722e-07
0.998529792,0.13031697960851146,-0.007816595487021943,1.7212341220095457e-07
0.888996482,0.1310400070277219,-0.007758715809550799,1.7215409659121137e-07
0.793953419,0.1317323097090283,-0.0076642234031947445,1.7222084034828641e-07
0.707013488,0.13242492666266284,-0.007530196232999975,1.723189686580974e-07
0.63065052,0.13308476037847142,-0.007364161609068414,1.7243262619889923e-07
0.561969399,0.13372250796703095,-0.007166147980686244,1.7254883355525556e-07
0.500801146,0.13432752845979654,-0.0069419353295256375,1.7265022656787855e-07
0.44653058100000004,0.13489398974670272,-0.006697488568674866,1.7272188669822285e-07
0.39697656,0.1354349500586724,-0.00643025346288705,1.7275383458544661e-07
0.35459780700000004,0.1359141151135295,-0.006163528681282903,1.7273986847473004e-07
0.31532523,0.1363696200266492,-0.005881490346119522,1.7268055934742533e-07
0.281247705,0.1367713045601027,-0.00560787450410257,1.7258703550108048e-07
0.250400603,0.13713732463223624,-0.005336994919244524,1.7246995576980642e-07
0.22326526,0.13745852435892567,-0.005082092149691019,1.723498556114114e-07
0.199491799,0.13773696641526373,-0.004849113005654952,1.7224507696975474e-07
0.177298903,0.1379923053109125,-0.00462847489979777,1.7216571519198685e-07
0.158038959,0.1382088488939499,-0.004441045970050512,1.7212967249550037e-07
0.141060576,0.13839519406482442,-0.004286782091277539,1.7213875550406644e-07
0.125845671,0.1385588459542581,-0.004166455451907048,1.7219023615861917e-07
0.11197824,0.13870668527703955,-0.004082492523933774,1.722783516228631e-07
0.09974589939999999,0.13883879319878337,-0.004041081550757692,1.7238940611817818e-07
0.0891024247,0.1389590744802354,-0.0040428821677248716,1.7251051158570566e-07
0.0792889595,0.1390801904740097,-0.004090232358394754,1.7264468414791624e-07
0.0707500353,0.1392009668331462,-0.004182174202014603,1.7279040983755264e-07
0.0630518198,0.13933151601996355,-0.00432153330343513,1.7297134032433197e-07
0.056078348300000004,0.13947929825014846,-0.004511097700870579,1.7322242749174204e-07
0.0500288084,0.13964382141134146,-0.004741275527625849,1.7357110332841947e-07
0.0445750952,0.13983694125257673,-0.005018282011429703,1.7406643395237955e-07
0.039762307000000004,0.14006049809427606,-0.0053341986726282275,1.7472251900193404e-07
0.0353750028,0.14032852824084258,-0.005697472349782252,1.7556220041152562e-07
0.0315259062,0.14063701374958662,-0.006091311486908859,1.765147629690903e-07
0.0281268004,0.1409909684047096,-0.0065121552300889335,1.7749796314951732e-07
0.0250390954,0.14140591950857104,-0.006967487586110461,1.784209154170405e-07
0.022357193799999998,0.14186655268477774,-0.007431073680271413,1.7911777549928982e-07
0.019913583999999998,0.14239769285885145,-0.007918697350244423,1.795305503729179e-07
0.0177685991,0.14298257364316205,-0.008405901399842694,1.7965038656869916e-07
0.0158327222,0.14363825893371068,-0.008898921509390189,1.7967738377709763e-07
0.0140958801,0.14436359444681798,-0.009387817583638687,1.800973575027935e-07
0.0125716031,0.14514055071984383,-0.009854196491034839,1.8175831354249197e-07
0.011199108300000002,0.14598621991287097,-0.010302551693341166,1.8603478230314268e-07
0.009981217790000002,0.1468857573288367,-0.010719115548683641,1.9475330093233067e-07
0.00889724959,0.14783665471979646,-0.01109855556097459,2.1029862610733878e-07
0.00792663917,0.14883960244072403,-0.011436948109074446,2.3571957547252462e-07
0.007064253559999999,0.14988070721994756,-0.011726295348682338,2.741657530396077e-07
0.0062955287300000004,0.15095592758630388,-0.011963323776405623,3.292640845272307e-07
0.005612427370000001,0.1520539811191243,-0.012144167166381184,4.0433939719983303e-07
0.00500083202,0.15317525114404867,-0.012267838862559884,5.034048905176437e-07
