tau,gamma,sigma_gamma
1e-07,-0.012542063846927576,0.11608829054978466
1.1097524964120721e-07,-0.012551541454730142,0.10584494157803095
1.2315506032928263e-07,-0.011979254802779948,0.09446702795139485
1.3667163564620074e-07,-0.01088630481839914,0.08268345902773175
1.5167168884709241e-07,-0.009363194024953003,0.07136584699208848
1.6831803533309585e-07,-0.007524578751556987,0.06146998355704127
1.867913599020781e-07,-0.005501950934402089,0.053885254202906054
2.0729217795953698e-07,-0.003434727453701214,0.04912275536782726
2.300430119772917e-07,-0.0014604062309828691,0.04697108947072217
2.5529080682395163e-07,0.0002954209046741596,0.04652302053711147
2.833096101839324e-07,0.0017283466370940914,0.04665498108274305
3.1440354715915e-07,0.0027628849534480082,0.04648854342442498
3.489101213406774e-07,0.003357937198909866,0.045552018267364186
3.872038781812557e-07,0.0035094412311948986,0.0437459355489881
4.2970047043208437e-07,0.003249904418662908,0.04125345741931312
4.768611697714474e-07,0.0026448086235717483,0.03844586738816743
5.291978735958437e-07,0.0017861737861295524,0.03577949135751938
5.872786613189477e-07,0.0007838442422851699,0.033668120268857155
6.517339604882421e-07,-0.0002447123342399493,0.03234205871458812
7.232633896483533e-07,-0.0011851551594297405,0.031762524139952925
8.026433522257174e-07,-0.001936577846532117,0.03166603189131213
8.907354638610439e-07,-0.002420428590266255,0.031711431054622874
9.884959046625586e-07,-0.002587241199378809,0.03162201544646621
1.096985797892384e-06,-0.002420596731461444,0.031257118903621796
1.217382727739662e-06,-0.0019380101439949726,0.030618000076873812
1.3509935211980278e-06,-0.0011887327481368004,0.029814128492121814
1.499268432786047e-06,-0.0002487465224376706,0.029008191883418005
1.6638168860761274e-06,0.0007865294192015426,0.028352556846761905
1.8464249428955464e-06,0.0018111199015109491,0.02793420803433639
2.049074689815846e-06,0.002718159962192601,0.02774951625349015
2.2739657523579273e-06,0.0034095229450912257,0.027719747533609486
2.523539170434766e-06,0.0038046398058568798,0.027735197400679062
2.800503894183631e-06,0.0038478502358003652,0.02770195197471555
3.107866187782014e-06,0.003513775583627421,0.027571392410546174
3.4489622604057595e-06,0.0028103697751404866,0.027346846952174705
3.827494478516315e-06,0.00177946893786185,0.02707143461180675
4.247571552536894e-06,0.0004948104142172838,0.026804844249651797
4.713753134116729e-06,-0.0009423781794595243,0.026598077348653822
5.2310993080562585e-06,-0.0024100074047339604,0.026475188010326015
5.805225516094895e-06,-0.003773658638031918,0.02642826852982329
6.44236350872137e-06,-0.004896607922283636,0.026425942149499327
7.149428986597577e-06,-0.00565082160732544,0.026429533176561503
7.934096665797492e-06,-0.005928288387352154,0.026408801107174026
8.804883581643465e-06,-0.005651932527172221,0.026351252226768748
9.771241535346501e-06,-0.0047852445918863395,0.026263046113255466
1.0843659686896109e-05,-0.003339692667331917,0.026162945666527965
1.2033778407775906e-05,-0.0013789680724443087,0.026072767259475587
1.3354515629298974e-05,0.000980795691063463,0.02600837623944136
1.48202070579886e-05,0.0035754903688882678,0.02597451841927511
1.6446761779946626e-05,0.006202517477511549,0.02596487011178633
1.8251834943190462e-05,0.008635172390828671,0.025966388888131856
2.0255019392306664e-05,0.010641272334915186,0.025965451706849302
2.2478058335487252e-05,0.012004795637260202,0.025953038571757823
2.4945081352303165e-05,0.012548752575934685,0.025927171284780136
2.7682866303920665e-05,0.012157070539995374,0.02589223867228725
3.072112998861759e-05,0.010793027496902141,0.02585605660356647
3.409285069746814e-05,0.008511775636819152,0.02582617898293804
3.783462617131933e-05,0.005464805244457693,0.025806986424081843
4.1987070844439056e-05,0.0018948168039187863,0.025798528370862293
4.659525668664687e-05,-0.001879634293878496,0.02579725278033556
5.170920242896755e-05,-0.005489255062670395,0.025797994656545472
5.7384416483024044e-05,-0.008547234980852636,0.02579621398095608
6.368249944718586e-05,-0.010687762139749424,0.025789574046757857
7.067181273927492e-05,-0.01160607943614167,0.025778382600847808
7.842822061337681e-05,-0.011095717957889661,0.025764944203046355
8.703591361485166e-05,-0.009078397874974442,0.025752273561520492
9.658832241158708e-05,-0.005622471721871136,0.025742779742566384
0.00010718913192051276,-0.0009467118706467659,0.02573742894565726
0.00011895340673703195,0.004592344399430459,0.025735620979375776
0.0001320088400831418,0.010529508012798061,0.02573569458736189
0.00014649713983072864,0.016334579897995027,0.025735747917497213
0.0001625755666443795,0.02146669681943081,0.02573440009031757
0.00018041864093920718,0.02543395236952506,0.025731207647612817
0.00020022003718155845,0.027851777236676867,0.025726644500064365
0.0002221946860939524,0.028493175153393224,0.02572173289899791
0.0002465811075822604,0.027324332725999767,0.02571753403241155
0.0002736439997074672,0.024520370503264388,0.025714721245130093
0.00030367711180354605,0.02045799423688166,0.025713385557279787
0.00033700643292719284,0.0156843535384823,0.025713105887123614
0.0003739937302478798,0.010864248485582095,0.025713205541175396
0.0004150404757850477,0.006710613253410713,0.025713060362582783
0.00046059220411451084,0.003905598461926729,0.025712326387515118
0.0005111433483440171,0.0030212414015622358,0.02571101268866997
0.0005672426068491978,0.004449391943509795,0.02570940005117752
0.0006294988990221888,0.008350092401997244,0.025707868373114753
0.0006985879746785249,0.014625965200991686,0.025706718470484988
0.0007752597488629464,0.02292746244874877,0.02570606520557798
0.000860346441668451,0.032690337753393806,0.025705830014991635
0.0009547716114208065,0.04320279301003893,0.025705818891751057
0.001059560179277617,0.05369589043024803,0.025705834695979046
0.0011758495540521582,0.06344748749732787,0.025705765778770328
0.0013049019780144017,0.07188760022897611,0.02570561591060404
0.001448118227674533,0.0786920845379484,0.025705468957143755
0.0016070528182616384,0.08385205767534387,0.0257054162377431
0.0017834308769319094,0.08770859164162914,0.02570549132721128
0.0019791668678535573,0.09094573234457926,0.025705646600854788
0.002196385372416547,0.09453948077842256,0.02570578626721837
0.002437444150122222,0.09966551306496285,0.025705836336792045
0.002704959730463137,0.10757351701388984,0.025705813757825283
0.0030018358135755923,0.1194404616892939,0.025705850207408624
0.003331294787934677,0.13621832405095802,0.025706150511202678
0.0036969127071950323,0.15849333051895087,0.02570689543761752
0.00410265810582719,0.1863733760730213,0.025708131367544535
0.004552935074866948,0.21941792996125287,0.02570970535598944
0.00505263106533568,0.25662063308718075,0.025711290689540534
0.005607169938205458,0.29644936374515396,0.0257125116564622
0.006222570836730231,0.33694239287706296,0.02571312639122528
0.006905513520162331,0.37585306608204405,0.025713189584897364
0.007663410868007463,0.4108299533799311,0.025713107850382288
0.008504489341802686,0.43961524543743735,0.025713536203215023
0.009437878277775391,0.4602418434387232,0.02571512750887895
0.010473708979594508,0.4712093750388249,0.025718223202568325
0.011623224686798541,0.47162131067889845,0.02572262169156948
0.01289890261253308,0.4612692418976394,0.025727554480064366
0.014314589375234785,0.44065578021275087,0.025731930180286442
0.015885651294280528,0.41095383460140056,0.025734791031719054
0.01762914118095948,0.37390652305731464,0.02573581409341145
0.01956398343517065,0.33167795152624535,0.025735628411357136
0.021711179456945052,0.2866699052979129,0.025735756705378164
0.02409403560239527,0.24132264179127105,0.025738119737891068
0.026738416158399492,0.19791914668334698,0.025744239451339725
0.029673024081888724,0.15841134216290698,0.02575444730564061
0.032929712550971546,0.1242839700655054,0.025767476801285823
0.036543830709572546,0.09646757001104334,0.025780723328544704
0.040554607358408275,0.0753066443528212,0.025791197431163922
0.04500557675700498,0.060583349787066254,0.025796880094524965
0.0499450511585514,0.05159150215868635,0.025797934780989087
0.05542664520663107,0.047250899514352795,0.02579717857558371
0.06150985788580504,0.046248423083852686,0.025799416463710347
0.06826071834272393,0.047190377552709606,0.02580968968614456
0.0757525025877192,0.048750213610588844,0.025831005397028917
0.08406652885618333,0.049797088074001294,0.025862511343189787
0.09329304026284696,0.049493444267454834,0.025899088818372638
0.10353218432956637,0.04735358800542144,0.02593287329516007
0.11489510001873086,0.043259652434073814,0.02595640780890999
0.1275051240713013,0.03743590821665066,0.025966315370131617
0.1414991297434576,0.030386615080715274,0.025965921804851667
0.15702901247293774,0.02280611485269901,0.025965384733455776
0.17426333860096507,0.015472317963144633,0.025978672434813478
0.19338917504552322,0.009135938971397195,0.026018028001469833
0.21461411978584058,0.0044177292931095735,0.026087943226539987
0.23816855519761607,0.001724606806348561,0.026181448907300068
0.2643081486974108,0.0011931811935284031,0.026281032552615158
0.29331662783900486,0.002666004520676779,0.026364695275038864
0.32550885998350565,0.005702285764257908,0.02641534633025151
0.36123426997094304,0.009621169903283544,0.026430010368197473
0.40088063288984643,0.013572360845529374,0.026424802002833283
0.4448782831127585,0.016626182007797752,0.026432481548437334
0.4937047852839004,0.017873363840223533,0.02649167390603895
0.5478901179593945,0.016524073692991692,0.026630492527483878
0.6080224261649427,0.011996003147686451,0.026851182977156638
0.67475440531107,0.003982636826307839,0.02712385257232315
0.748810385759003,-0.007505017374711542,0.02739417747649614
0.8309941949353403,-0.022127194391273974,0.027603573496754456
0.9221978823334341,-0.039235516415629945,0.027714784194425912
1.0234114021054528,-0.05792232245719475,0.027733701187230786
1.135733358343105,-0.07709421859156151,0.027718546238677953
1.2603829296797273,-0.09556267930717155,0.02776908200266701
1.3987131026472386,-0.1121430875899847,0.027993063012407907
1.552225357427048,-0.12575303382615743,0.02845805643533652
1.7225859653987874,-0.1355010224976425,0.029150797766148717
1.9116440753857036,-0.14075789229495683,0.029969059714095136
2.121451784910632,-0.14120509191619846,0.03075383868203722
2.35428641432242,-0.1368562623361953,0.031347611975872956
2.612675225563332,-0.12805111234166588,0.03165735243869446
2.8994228538828812,-0.11542308370190568,0.03170654256829463
3.2176417502507353,-0.09984454826089006,0.03166322654755419
3.5707859649004625,-0.0823550640232611,0.03182387808883504
3.9626886387014784,-0.06407940068452689,0.03252750401724938
4.397603609302721,-0.046142554351149556,0.03400516239324379
4.880251583654434,-0.029588803914116113,0.036244569641210464
5.415871378079476,-0.015311080560543644,0.03897180762013472
6.010276782070388,-0.0039956441510611285,0.0417543103957365
6.669919663030129,0.003914559270320694,0.044142790144341394
7.401959996915652,0.008236271105900528,0.04579367438758099
8.214343584919439,0.009042215552867106,0.04656927495038355
9.115888299750837,0.00663911861688149,0.04663205594335253
10.11637979766207,0.0015305689276914336,0.04653024182183408
11.226677735108158,-0.005631228803444799,0.047208994115148964
12.458833642950081,-0.014100251612649828,0.049794059616198406
13.826221737646593,-0.023093373720762145,0.05509062783605452
15.343684089300131,-0.03184467707514216,0.06316110202392401
17.02769172225898,-0.03965366474977472,0.07339422955782895
18.896523396912116,-0.04592454398226309,0.08486972671204639
20.970464013232306,-0.05019473348266246,0.09664004035115552
23.27202478960412,-0.052151767319553954,0.10785711734328306
25.826187606826746,-0.0516387261884006,0.11782226384111799
28.66067616948256,-0.048649154090446345,0.12601526212348602
31.80625692794119,-0.0433130635378145,0.13212237993034118
35.297073027306574,-0.03587606737073301,0.1360671833931639
39.17101490809261,-0.026673894276640908,0.1380431223254714
43.47013158125035,-0.016104561685249763,0.1385431550520057
48.241087041653735,-0.004600322637349663,0.13837332985446357
53.535666774107185,0.007398788465916795,0.13862133229377627
59.411339849650396,0.019468368423513738,0.14053548962820603
65.93188271333541,0.03121900119547405,0.14528684890051702
73.16807143427206,0.042310975043028165,0.1536720146355283
81.19844993184009,0.052464181709606095,0.16591330475626975
90.11018251665037,0.06146336593450563,0.18167816188589822
100.0,0.06915916869512362,0.20027189917243382
