tau,gamma,sigma_gamma
1e-07,-0.01417414862416111,0.1577424137290133
1.1097524964120721e-07,-0.02059779633017156,0.15781102519316698
1.2315506032928263e-07,-0.026846153892065683,0.15729509472522576
1.3667163564620074e-07,-0.032651262675248205,0.15569381878913274
1.5167168884709241e-07,-0.03773124619868451,0.15270656365818988
1.6831803533309585e-07,-0.04180453545209328,0.1482290462039639
1.867913599020781e-07,-0.044606244308607046,0.14233893323182675
2.0729217795953698e-07,-0.045905829091595685,0.13527607646438425
2.300430119772917e-07,-0.04552492789764262,0.12741832256185406
2.5529080682395163e-07,-0.043354097087389576,0.1192505250462748
2.833096101839324e-07,-0.039367070540169635,0.11132136185159978
3.1440354715915e-07,-0.033631183009045884,0.10418077065446336
3.489101213406774e-07,-0.026312735431615053,0.09829448161896377
3.872038781812557e-07,-0.01767634007560126,0.09394729933977718
4.2970047043208437e-07,-0.008077657497498336,0.09117061497698696
4.768611697714474e-07,0.0020505965918022895,0.0897382490709488
5.291978735958437e-07,0.01221897208724343,0.08924359342529768
5.872786613189477e-07,0.021906990871499943,0.08922093353973974
6.517339604882421e-07,0.03059279085866251,0.08925556844734828
7.232633896483533e-07,0.037784837084636536,0.08905080315520228
8.026433522257174e-07,0.043053535361133655,0.08845076884916922
8.907354638610439e-07,0.04606045503468792,0.08743215317296475
9.884959046625586e-07,0.04658292555415322,0.08607765384611363
1.096985797892384e-06,0.044532022020087325,0.08453944728352226
1.217382727739662e-06,0.03996238426338117,0.08299795743952854
1.3509935211980278e-06,0.0330728907997937,0.08162093589041848
1.499268432786047e-06,0.024197886217574904,0.08052919761822216
1.6638168860761274e-06,0.013789379972108051,0.07977596909574969
1.8464249428955464e-06,0.002391332543734137,0.07934445184716508
2.049074689815846e-06,-0.009392241180689709,0.07916278146569718
2.2739657523579273e-06,-0.020933146753552734,0.07912987629986475
2.523539170434766e-06,-0.03161636518180799,0.07914313186973923
2.800503894183631e-06,-0.040876302215599125,0.07912043023723332
3.107866187782014e-06,-0.048229468530117,0.07901263167988737
3.4489622604057595e-06,-0.05330144501082934,0.07880622743099568
3.827494478516315e-06,-0.05584646679126948,0.07851802763421487
4.247571552536894e-06,-0.055758553732184524,0.07818472649491402
4.713753134116729e-06,-0.053073767702445096,0.0778504139994773
5.2310993080562585e-06,-0.0479638296759175,0.07755490832185734
5.805225516094895e-06,-0.04072192698787447,0.07732522268089388
6.44236350872137e-06,-0.03174203646790641,0.07717153700878102
7.149428986597577e-06,-0.021493448676153548,0.07708783719416183
7.934096665797492e-06,-0.010492383312848297,0.07705622580795127
8.804883581643465e-06,0.0007273670788494613,0.07705316038078237
9.771241535346501e-06,0.01164292737534467,0.07705573411353696
1.0843659686896109e-05,0.021768348925983005,0.0770465109553233
1.2033778407775906e-05,0.030676836485842962,0.0770161126886283
1.3354515629298974e-05,0.038018262422193416,0.07696346089336989
1.48202070579886e-05,0.043531428136336814,0.07689412259716842
1.6446761779946626e-05,0.04705091096340297,0.07681752375181818
1.8251834943190462e-05,0.048508674365311144,0.07674388031047162
2.0255019392306664e-05,0.04793090092752639,0.07668158916400691
2.2478058335487252e-05,0.04543072032209494,0.07663557633742756
2.4945081352303165e-05,0.04119764421935557,0.07660678850228356
2.7682866303920665e-05,0.03548458953145328,0.07659271451480505
3.072112998861759e-05,0.0285933773685505,0.07658860547306105
3.409285069746814e-05,0.02085954762413955,0.07658896489294806
3.783462617131933e-05,0.012637239545000511,0.07658890637265425
4.1987070844439056e-05,0.004284768631118929,0.07658509252427802
4.659525668664687e-05,-0.003848609023489935,0.07657612728495289
5.170920242896755e-05,-0.01143440179433064,0.07656242668022349
5.7384416483024044e-05,-0.018174860738735532,0.07654570675207857
6.368249944718586e-05,-0.02381117135731259,0.07652828512669635
7.067181273927492e-05,-0.028129917043800745,0.0765123941095947
7.842822061337681e-05,-0.030967963132959575,0.0764996597444747
8.703591361485166e-05,-0.03221596723319564,0.07649083160883938
9.658832241158708e-05,-0.03182073901148108,0.07648577316024482
0.00010718913192051276,-0.029786648120663894,0.07648366036120408
0.00011895340673703195,-0.026176213483583233,0.07648329903314804
0.0001320088400831418,-0.02110990608852026,0.07648346262255559
0.00014649713983072864,-0.014765071170110389,0.07648316798740493
0.0001625755666443795,-0.007373739338766949,0.07648183849568632
0.00018041864093920718,0.0007810308538878097,0.07647934043603212
0.00020022003718155845,0.009370732495324052,0.07647591088315474
0.0002221946860939524,0.018029408604152586,0.07647201636968003
0.0002465811075822604,0.02636453593795718,0.0764681894246547
0.0002736439997074672,0.03397114429952364,0.07646488532403029
0.00030367711180354605,0.040449311269493915,0.07646238790941015
0.00033700643292719284,0.045424873231352025,0.07646077594566945
0.0003739937302478798,0.04857282146514175,0.07645994501757779
0.0004150404757850477,0.04964243484258102,0.07645966801568549
0.00046059220411451084,0.048482776756010315,0.07645967173302219
0.0005111433483440171,0.04506679974714878,0.07645970795549106
0.0005672426068491978,0.03951200710553282,0.07645960321708897
0.0006294988990221888,0.03209546544969566,0.0764592797752731
0.0006985879746785249,0.023260988065832322,0.07645874885958405
0.0007752597488629464,0.01361654505154375,0.07645808383550828
0.000860346441668451,0.003920415043747738,0.07645738440630476
0.0009547716114208065,-0.0049447348241069555,0.07645674307562675
0.001059560179277617,-0.01200980150544595,0.07645622235042894
0.0011758495540521582,-0.016268213701824408,0.07645584673928818
0.0013049019780144017,-0.016733868050906153,0.07645560877582562
0.001448118227674533,-0.01250499651054593,0.0764554843937392
0.0016070528182616384,-0.0028300712212319112,0.07645545081742937
0.0017834308769319094,0.012828774803142373,0.07645550013153225
0.0019791668678535573,0.03473964986874023,0.07645564366850935
0.002196385372416547,0.06285691214732747,0.0764559056845992
0.002437444150122222,0.09679360806288173,0.07645630853381616
0.002704959730463137,0.13581380164371115,0.07645685470012951
0.0030018358135755923,0.17884703106448452,0.07645751268182907
0.003331294787934677,0.2245256176835726,0.07645821331971217
0.0036969127071950323,0.27124386457200433,0.0764588606383503
0.00410265810582719,0.3172364485178214,0.07645935708993166
0.004552935074866948,0.36067167757284757,0.07645963827378836
0.00505263106533568,0.39975390140330447,0.0764597079535535
0.005607169938205458,0.4328283566043787,0.0764596619392762
0.006222570836730231,0.4584812098464326,0.07645969009785278
0.006905513520162331,0.4756275967056496,0.07646004985923109
0.007663410868007463,0.4835810660656463,0.07646101165773854
0.008504489341802686,0.48209900208160406,0.07646278539622503
0.009437878277775391,0.4714002316374746,0.07646544510342167
0.010473708979594508,0.45215301462778257,0.07646887400488735
0.011623224686798541,0.4254338021684063,0.07647275195949471
0.01289890261253308,0.39265935707822663,0.07647660044145273
0.014314589375234785,0.3554968782166661,0.0764798872618046
0.015885651294280528,0.31575848172720455,0.07648217625340385
0.01762914118095948,0.27528761951032266,0.07648329010808229
0.01956398343517065,0.2358456489734877,0.07648344234039547
0.021711179456945052,0.1990067483615796,0.0764832917371908
0.02409403560239527,0.16606869434542304,0.07648388289569905
0.026738416158399492,0.1379857352654703,0.07648645999585417
0.029673024081888724,0.11532800941130716,0.07649217455229874
0.032929712550971546,0.09826982179689026,0.07650174445376248
0.036543830709572546,0.08660678508184816,0.0765151511512564
0.040554607358408275,0.07979954590732419,0.07653147375456532
0.04500557675700498,0.07703975057400925,0.07654894480476619
0.0499450511585514,0.07733222810269069,0.07656527006874941
0.05542664520663107,0.07958622414047767,0.07657818908341953
0.06150985788580504,0.0827079985124719,0.07658617768500318
0.06826071834272393,0.08568723957524327,0.07658912739965074
0.0757525025877192,0.0876705282327066,0.07658880019581532
0.08406652885618333,0.08801642517889618,0.07658886843740269
0.09329304026284696,0.08632852895710741,0.07659441849766063
0.10353218432956637,0.08246489465814832,0.07661091926396951
0.11489510001873086,0.0765243263538693,0.07664281375074966
0.1275051240713013,0.06881206886852453,0.0766920464499791
0.1414991297434576,0.059789147571137846,0.07675694200280102
0.15702901247293774,0.05001088949907029,0.07683185533412097
0.17426333860096507,0.04006089946096836,0.07690789263343559
0.19338917504552322,0.030486907525919094,0.07697476510460009
0.21461411978584058,0.021744452967261907,0.07702353001777086
0.23816855519761607,0.014153383272294207,0.07704966875237419
0.2643081486974108,0.0078707330941441,0.07705572725150665
0.29331662783900486,0.002881852435422161,0.07705266902507178
0.32550885998350565,-0.0009901558404763477,0.07705921719414859
0.36123426997094304,-0.004058377549029046,0.07709882182898113
0.40088063288984643,-0.0067326204959883285,0.07719447271192277
0.4448782831127585,-0.009470915551123227,0.07736229624218668
0.4937047852839004,-0.012727065772082824,0.07760552902324613
0.5478901179593945,-0.016899518698693328,0.07791077315612441
0.6080224261649427,-0.022286522659271668,0.07824818159233397
0.67475440531107,-0.02905175399178006,0.07857637527621497
0.748810385759003,-0.037203460449095616,0.07885169681752473
0.8309941949353403,-0.046588780602178304,0.07904022821122757
0.9221978823334341,-0.056903412119684305,0.0791301251759661
1.0234114021054528,-0.06771535945006235,0.07914133075164596
1.135733358343105,-0.07850022889585517,0.07912960367930148
1.2603829296797273,-0.08868456793246082,0.07918212947542405
1.3987131026472386,-0.09769314394313611,0.079403142753547
1.552225357427048,-0.10499586382492865,0.07989044915932332
1.7225859653987874,-0.11015024737437784,0.0807074131954676
1.9116440753857036,-0.11283594240767059,0.08185846844899981
2.121451784910632,-0.11287863411498122,0.08327704808965844
2.35428641432242,-0.11026175779127811,0.08483153951137548
2.612675225563332,-0.10512556310943744,0.08634893975361264
2.8994228538828812,-0.09775418902577204,0.08765089772699278
3.2176417502507353,-0.08855239086591915,0.08859512667978615
3.5707859649004625,-0.07801433398463953,0.08911611533276287
3.9626886387014784,-0.06668737623202681,0.0892602522434784
4.397603609302721,-0.05513397809844278,0.08920973071076918
4.880251583654434,-0.04389480810106505,0.08928612002619458
5.415871378079476,-0.03345578167338914,0.08992014748944165
6.010276782070388,-0.02422123599965431,0.09157584636856787
6.669919663030129,-0.016494766983745635,0.09463488958692433
7.401959996915652,-0.010468510824702904,0.09927914966258897
8.214343584919439,-0.00622091363256061,0.10542721669712343
9.115888299750837,-0.0037223626280349364,0.11275374115439026
10.11637979766207,-0.002847503125930295,0.1207699861329661
11.226677735108158,-0.003392671517319812,0.12892043029320951
12.458833642950081,-0.0050966525888966885,0.13666421386146027
13.826221737646593,-0.007662918922522799,0.14353359380492642
15.343684089300131,-0.0107816145794839,0.1491743269141517
17.02769172225898,-0.014149776606867448,0.1533750702023961
18.896523396912116,-0.017488610150965478,0.15609066076268538
20.970464013232306,-0.020557006803831435,0.1574610624724632
23.27202478960412,-0.023160882722188525,0.15782434521722286
25.826187606826746,-0.02515827876604071,0.15771751306054466
28.66067616948256,-0.02646048206112317,0.15785310729941726
31.80625692794119,-0.027029677927262963,0.15905522388504226
35.297073027306574,-0.026873812925247265,0.16214438873455111
39.17101490809261,-0.026039442074012875,0.16778590821412115
43.47013158125035,-0.024603351525148476,0.17635260425180627
48.241087041653735,-0.022663703086714282,0.18786429203824648
53.535666774107185,-0.020331353458054924,0.2020273572155779
59.411339849650396,-0.0177218749790935,0.2183403772951667
65.93188271333541,-0.014948662084966813,0.23620963563659345
73.16807143427206,-0.012117362907608342,0.25503774100307286
81.19844993184009,-0.009321740444053983,0.2742770778724486
90.11018251665037,-0.006640951155298724,0.29345551847822166
100.0,-0.004138136225924738,0.31218477705158104
