tau,gamma,sigma_gamma
1e-07,0.04084656498470457,0.25711611948418855
1.1097524964120721e-07,0.03561758206709448,0.25664400348035615
1.2315506032928263e-07,0.027795729263642988,0.2567370310913499
1.3667163564620074e-07,0.01715130253346253,0.25666191789817033
1.5167168884709241e-07,0.0036587353310272297,0.2557124162101676
1.6831803533309585e-07,-0.012426605049239092,0.25338429916590227
1.867913599020781e-07,-0.030507990167087273,0.24950758184809765
2.0729217795953698e-07,-0.049619684286719035,0.24430310185731455
2.300430119772917e-07,-0.0684470288447856,0.23834369648595946
2.5529080682395163e-07,-0.08540407173810016,0.23241583622207973
2.833096101839324e-07,-0.09877008111049745,0.22730385748448395
3.1440354715915e-07,-0.1068756643566362,0.22355776914381967
3.489101213406774e-07,-0.10831832038712097,0.22133597219401538
3.872038781812557e-07,-0.10217828849303556,0.22039686670705172
4.2970047043208437e-07,-0.08820063478361906,0.22023858535523708
4.768611697714474e-07,-0.06691024063177364,0.22030789026633046
5.291978735958437e-07,-0.03963343170421174,0.22018025410416156
5.872786613189477e-07,-0.008412909850675998,0.21965258244527702
6.517339604882421e-07,0.02418042626135186,0.21874205117402618
7.232633896483533e-07,0.05531731620361757,0.21761761041905497
8.026433522257174e-07,0.08222508705928488,0.21650256950565724
8.907354638610439e-07,0.1025023911544598,0.2155851123096615
9.884959046625586e-07,0.11438819246569842,0.21496326600566704
1.096985797892384e-06,0.11694801604897798,0.2146343288529718
1.217382727739662e-06,0.11015569580720053,0.2145211691291678
1.3509935211980278e-06,0.09486690022528244,0.21451631203681631
1.499268432786047e-06,0.07269720789187373,0.21452345598142572
1.6638168860761274e-06,0.045828956862657755,0.21448306499248662
1.8464249428955464e-06,0.016775962456246685,0.21437842597687268
2.049074689815846e-06,-0.011865838836463194,0.2142262665679103
2.2739657523579273e-06,-0.037658410319643565,0.2140597387342479
2.523539170434766e-06,-0.05853438855364601,0.2139115654076843
2.800503894183631e-06,-0.07296899506741727,0.21380270145125213
3.107866187782014e-06,-0.08009996820692322,0.21373846721117998
3.4489622604057595e-06,-0.07978594846889298,0.2137110923821408
3.827494478516315e-06,-0.07259605305937145,0.21370583061935158
4.247571552536894e-06,-0.059728008534857935,0.21370750980488148
4.713753134116729e-06,-0.04285975579545953,0.21370522611407802
5.2310993080562585e-06,-0.023949019755670875,0.21369422840520289
5.805225516094895e-06,-0.005004747690185329,0.21367526241857426
6.44236350872137e-06,0.012139239819773273,0.2136523849467567
7.149428986597577e-06,0.026016952061321152,0.21363043345594754
7.934096665797492e-06,0.03566310908615122,0.2136130733395653
8.804883581643465e-06,0.040670754249550356,0.213601867468751
9.771241535346501e-06,0.04117182208470416,0.21359634188426146
1.0843659686896109e-05,0.03775213027985069,0.2135947073023478
1.2033778407775906e-05,0.0313220043410638,0.213594791535077
1.3354515629298974e-05,0.022968121118278617,0.21359481108268943
1.48202070579886e-05,0.01381095184699177,0.21359378090320302
1.6446761779946626e-05,0.0048866044300934774,0.21359154299173821
1.8251834943190462e-05,-0.002936097021023265,0.21358852438295836
2.0255019392306664e-05,-0.009000754590110738,0.21358538787216066
2.2478058335487252e-05,-0.012875278592045625,0.21358272175687085
2.4945081352303165e-05,-0.014339913962445383,0.21358085592160853
2.7682866303920665e-05,-0.013363128799788182,0.21357982305400747
3.072112998861759e-05,-0.010076752691993374,0.21357943090718426
3.409285069746814e-05,-0.004758947547117032,0.21357938647041902
3.783462617131933e-05,0.0021712116472669685,0.21357941496761926
4.1987070844439056e-05,0.01014965914174737,0.21357933649073774
4.659525668664687e-05,0.018461480808565023,0.21357908867910574
5.170920242896755e-05,0.0262447305731055,0.21357870505958487
5.7384416483024044e-05,0.03251594726316043,0.21357826999942453
6.368249944718586e-05,0.03622632479482002,0.21357787216307278
7.067181273927492e-05,0.0363513933072932,0.21357757191020793
7.842822061337681e-05,0.03200952936662649,0.21357738866762951
8.703591361485166e-05,0.022597600063404055,0.2135773059366649
9.658832241158708e-05,0.00792721041300748,0.21357728664260744
0.00010718913192051276,-0.011656820587676142,0.2135772905139678
0.00011895340673703195,-0.03519310963108779,0.2135772871740571
0.0001320088400831418,-0.06106972232986041,0.2135772620332241
0.00014649713983072864,-0.08704950524974242,0.21357721533324128
0.0001625755666443795,-0.11035994935558446,0.21357715680705938
0.00018041864093920718,-0.1278479353958748,0.21357709905759123
0.00020022003718155845,-0.13619478160331377,0.21357705219069167
0.0002221946860939524,-0.13218193352643626,0.21357702102834514
0.0002465811075822604,-0.11299230840555818,0.21357700497296905
0.0002736439997074672,-0.07652670006950624,0.21357699971512156
0.00030367711180354605,-0.021708912771591482,0.2135769996378035
0.00033700643292719284,0.05125204099260383,0.21357699991136297
0.0003739937302478798,0.14067812388641743,0.21357699769278413
0.0004150404757850477,0.24335270393037067,0.2135769923207621
0.00046059220411451084,0.3545960428302579,0.21357698475745832
0.0005111433483440171,0.46850449498089386,0.21357697669297304
0.0005672426068491978,0.5783526704161623,0.21357696970683973
0.0006294988990221888,0.6771332973562321,0.2135769647386134
0.0006985879746785249,0.7581842956714535,0.2135769619420217
0.0007752597488629464,0.8158324072898546,0.21357696085036806
0.000860346441668451,0.8459730521833051,0.21357696070374244
0.0009547716114208065,0.8465101577718679,0.21357696078211624
0.001059560179277617,0.8175974596055378,0.21357696063233572
0.0011758495540521582,0.7616507042486855,0.2135769601424476
0.0013049019780144017,0.6831325156106929,0.21357695947713687
0.001448118227674533,0.588142083440466,0.21357695892744408
0.0016070528182616384,0.483865098093597,0.21357695874297222
0.0017834308769319094,0.3779524394983125,0.21357695900787843
0.0019791668678535573,0.2778983126896688,0.21357695960134074
0.002196385372416547,0.19048097352505788,0.2135769602546204
0.002437444150122222,0.12131426276852109,0.21357696068709012
0.002704959730463137,0.07453878930323032,0.21357696077586397
0.0030018358135755923,0.05266084291535922,0.21357696069511262
0.003331294787934677,0.05652792632298631,0.21357696095801235
0.0036969127071950323,0.08541481289405262,0.2135769623134231
0.00410265810582719,0.1371853659387572,0.213576965493597
0.004552935074866948,0.20849428706811945,0.21357697087193273
0.00505263106533568,0.29499962355103637,0.21357697815338833
0.005607169938205458,0.39156988780443314,0.21357698625699123
0.006222570836730231,0.4924859903372045,0.2135769935312181
0.006905513520162331,0.5916533970612701,0.2135769983518017
0.007663410868007463,0.6828489371784876,0.21357699999512628
0.008504489341802686,0.7600252799429033,0.21357699950375497
0.009437878277775391,0.8176825255848019,0.21357700013360045
0.010473708979594508,0.8512926321910665,0.21357700698279808
0.011623224686798541,0.8577344887850176,0.21357702560370426
0.01289890261253308,0.8356739754128988,0.21357705979159397
0.014314589375234785,0.7858130576494196,0.21357710922428694
0.015885651294280528,0.7109406415687145,0.21357716801356388
0.01762914118095948,0.6157460510582737,0.21357722529253328
0.01956398343517065,0.5063980505685137,0.21357726852243558
0.021711179456945052,0.3899381250461129,0.21357728923370625
0.02409403560239527,0.2735743794178127,0.21357728963027287
0.026738416158399492,0.16398200703057775,0.21357728734868303
0.029673024081888724,0.06671279468020241,0.21357731528206642
0.032929712550971546,-0.014209108794130287,0.2135774142881116
0.036543830709572546,-0.07646786878064749,0.21357761897029692
0.040554607358408275,-0.1194198463883187,0.2135779401089474
0.04500557675700498,-0.14388467240829872,0.21357835058860827
0.0499450511585514,-0.15182967140649373,0.2135787832146641
0.05542664520663107,-0.14601747379040653,0.2135791470960825
0.06150985788580504,-0.1296737418208984,0.21357936358767748
0.06826071834272393,-0.10620858212306628,0.21357941398482896
0.0757525025877192,-0.07899958855046929,0.2135793819717595
0.08406652885618333,-0.05122414864193359,0.2135794684245422
0.09329304026284696,-0.02571858520086323,0.21357995889631431
0.10353218432956637,-0.004843154914712544,0.21358113746234966
0.11489510001873086,0.00965730018656652,0.213583163196315
0.1275051240713013,0.01679165355311185,0.213585950965283
0.1414991297434576,0.016439202544713538,0.21358911570851818
0.15702901247293774,0.009414187850617095,0.21359203689797832
0.17426333860096507,-0.0025543534016057023,0.21359406935585262
0.19338917504552322,-0.01695251737637493,0.21359486947401243
0.21461411978584058,-0.03073070650417775,0.21359473687838235
0.23816855519761607,-0.04066025884000557,0.2135948179120004
0.2643081486974108,-0.04376291898890439,0.21359701157610472
0.29331662783900486,-0.03775879916785807,0.21360348591823672
0.32550885998350565,-0.021466328996717632,0.21361585553189952
0.36123426997094304,0.004913493651286238,0.21363425618056414
0.40088063288984643,0.0396850351116913,0.2136567120239509
0.4448782831127585,0.0797520225250814,0.21367923620855825
0.4937047852839004,0.12092080591959586,0.21369696226622034
0.5478901179593945,0.158382382089568,0.21370625347668884
0.6080224261649427,0.18731178290975548,0.21370725119258793
0.67475440531107,0.2035009634197369,0.21370586749847403
0.748810385759003,0.2039317756727721,0.21371403033502137
0.8309941949353403,0.18720158974450118,0.21374726500100694
0.9221978823334341,0.15373569757404315,0.21381954064640646
1.0234114021054528,0.10575488983415049,0.21393659139210938
1.135733358343105,0.04700760777247037,0.21409021905965056
1.2603829296797273,-0.017684307486763196,0.21425676030810614
1.3987131026472386,-0.08298766890926057,0.2144023409501795
1.552225357427048,-0.1436364594752595,0.21449549347276203
1.7225859653987874,-0.19494225463304105,0.2145245410381788
1.9116440753857036,-0.2331757537717749,0.21451382544164427
2.121451784910632,-0.2557921322260288,0.21453075134315072
2.35428641432242,-0.26150656885960366,0.21467622202071407
2.612675225563332,-0.25025122209515516,0.21505552350730964
2.8994228538828812,-0.22305583492071435,0.21573503548575165
3.2176417502507353,-0.1818907509929666,0.2166998120255946
3.5707859649004625,-0.1294976590880248,0.21783291494532706
3.9626886387014784,-0.06921662966226538,0.21893417396934656
4.397603609302721,-0.004804644462347518,0.21978294080275418
4.880251583654434,0.05976479304297122,0.22023147114737548
5.415871378079476,0.12052825966381064,0.22029992806258614
6.010276782070388,0.17378277778763618,0.2202351229491738
6.669919663030129,0.21634508477115677,0.22049555050354727
7.401959996915652,0.24579414288434576,0.22164051734250131
8.214343584919439,0.2606654056019835,0.22413861664169923
9.115888299750837,0.26056637423066675,0.228163847449486
10.11637979766207,0.24619104274446268,0.23347926026202226
11.226677735108158,0.21922463006116732,0.23947576641141904
12.458833642950081,0.18214695272451298,0.2453503910387355
13.826221737646593,0.13795941966059022,0.25034183326778825
15.343684089300131,0.0898732238827713,0.2539351866571986
17.02769172225898,0.04100185159360814,0.255982459583867
18.896523396912116,-0.005901841777617101,0.25672276187473203
20.970464013232306,-0.04863421321964623,0.25670975669328483
23.27202478960412,-0.08564056648618479,0.2566685820726127
25.826187606826746,-0.1160277071649598,0.2573176139941371
28.66067616948256,-0.1395043428787499,0.2592022927508416
31.80625692794119,-0.1562724378302005,0.2625891254285803
35.297073027306574,-0.16689476662262592,0.26744773499139723
39.17101490809261,-0.17216103463780774,0.27351272722759984
43.47013158125035,-0.1729689469260458,0.2803874573273684
48.241087041653735,-0.17022961225501243,0.2876465161167665
53.535666774107185,-0.16480034421425316,0.2949095955285995
59.411339849650396,-0.1574432387819733,0.3018799606130611
65.93188271333541,-0.1488051407447486,0.3083541043141992
73.16807143427206,-0.13941353213803764,0.31421345247325905
81.19844993184009,-0.12968300772337116,0.3194077340230054
90.11018251665037,-0.11992783024557396,0.32393651746512997
100.0,-0.11037715649584834,0.3278324800140604
