tau,gamma,ftp
1e-07,2.3684882836435585e-06,1.4605129809208304e-05
1.1097524964120721e-07,1.2110855996149974e-05,7.50074461148865e-05
1.2315506032928263e-07,4.178365676512955e-05,0.0002614896656592348
1.3667163564620074e-07,9.935328577492805e-05,0.0006366327539423228
1.5167168884709241e-07,0.00017028850009533707,0.0011451525231300566
1.6831803533309585e-07,0.00022761233154912816,0.0016605979939451761
1.867913599020781e-07,0.0002619894300040451,0.002124365130633732
2.0729217795953698e-07,0.0002812628584203314,0.0025406743355523603
2.300430119772917e-07,0.00029446472120427743,0.002925199932638656
2.5529080682395163e-07,0.00030672821141287775,0.00327952094433406
2.833096101839324e-07,0.0003202832471497585,0.003599019519173597
3.1440354715915e-07,0.00033655808862779167,0.0038877739947682
3.489101213406774e-07,0.00035518587007702176,0.004145019994596741
3.872038781812557e-07,0.00037391715229671536,0.004376905182610111
4.2970047043208437e-07,0.00038858695243547555,0.004581352085710881
4.768611697714474e-07,0.0003960943223317471,0.00476309123736758
5.291978735958437e-07,0.00039359666713261707,0.004922171075692295
5.872786613189477e-07,0.00038034689716557956,0.005061023676926138
6.517339604882421e-07,0.00035795577705826634,0.005182219051814133
7.232633896483533e-07,0.0003289171875995709,0.00528519818520174
8.026433522257174e-07,0.0002978894688886094,0.005374920523128937
8.907354638610439e-07,0.00026790522514695206,0.005448771433151499
9.884959046625586e-07,0.00024015206441174153,0.005512737198240406
1.096985797892384e-06,0.0002144395849538137,0.0055636340482666325
1.217382727739662e-06,0.00019080867691565972,0.005606543616820168
1.3509935211980278e-06,0.00016955837070426616,0.005639248168294189
1.499268432786047e-06,0.00015113343947587598,0.0056642611695204206
1.6638168860761274e-06,0.0001361219438244834,0.005681419529046157
1.8464249428955464e-06,0.0001241473285909861,0.00569013122996339
2.049074689815846e-06,0.00011416795210528064,0.00569293068164853
2.2739657523579273e-06,0.00010523273670447512,0.005686758177584294
2.523539170434766e-06,9.72394239216909e-05,0.005676205157960438
2.800503894183631e-06,9.018956599949406e-05,0.0056570147257769664
3.107866187782014e-06,8.414854084567122e-05,0.005634022451005735
3.4489622604057595e-06,7.897985660420475e-05,0.005603357647680032
3.827494478516315e-06,7.446197473030246e-05,0.00556869978099511
4.247571552536894e-06,7.030746481617543e-05,0.005528365890868917
4.713753134116729e-06,6.641698433938371e-05,0.0054835082451221194
5.2310993080562585e-06,6.286776744351139e-05,0.00543485905787062
5.805225516094895e-06,5.960075878021812e-05,0.005380676343019831
6.44236350872137e-06,5.6496868925873104e-05,0.005323953367919261
7.149428986597577e-06,5.3396233634019095e-05,0.0052609324013947086
7.934096665797492e-06,5.0400046907973754e-05,0.0051958206483823715
8.804883581643465e-06,4.770085435005104e-05,0.005124467092188378
9.771241535346501e-06,4.575374942513163e-05,0.005051181250748052
1.0843659686896109e-05,4.4918543787556094e-05,0.0049735230242685495
1.2033778407775906e-05,4.508328124150571e-05,0.004894952511590488
1.3354515629298974e-05,4.5712623185856846e-05,0.00481630932849743
1.48202070579886e-05,4.620249508864863e-05,0.004739903576673901
1.6446761779946626e-05,4.60772605951976e-05,0.004670385151508029
1.8251834943190462e-05,4.561524657865482e-05,0.00460954504153132
2.0255019392306664e-05,4.6018503630829354e-05,0.004565160958664162
2.2478058335487252e-05,4.7950229641217487e-05,0.004539125240089479
2.4945081352303165e-05,5.080640259401993e-05,0.004539610541324941
2.7682866303920665e-05,5.3678011427475865e-05,0.0045675380735212285
3.072112998861759e-05,5.647631375591533e-05,0.004627561597683062
3.409285069746814e-05,5.945179781527902e-05,0.004716650782876565
3.783462617131933e-05,6.278951766075267e-05,0.004832851770556098
4.1987070844439056e-05,6.644752096186502e-05,0.004967641158698432
4.659525668664687e-05,7.044073323613508e-05,0.005113383887873192
5.170920242896755e-05,7.479469869113502e-05,0.0052617574063981865
5.7384416483024044e-05,7.93672433058681e-05,0.0054040022517979095
6.368249944718586e-05,8.375251889708431e-05,0.005539059918365464
7.067181273927492e-05,8.717803457978425e-05,0.00565930963974743
7.842822061337681e-05,8.894657379617653e-05,0.0057656609843053696
8.703591361485166e-05,8.936934488967946e-05,0.005849948147108278
9.658832241158708e-05,9.169799365306215e-05,0.005915374112165006
0.00010718913192051276,9.970874445658572e-05,0.005959052037535232
0.00011895340673703195,0.00011322013657827894,0.005984603186966541
0.0001320088400831418,0.00012876166869476606,0.005993415910331137
0.00014649713983072864,0.0001443034762707111,0.005983981076680686
0.0001625755666443795,0.0001598528342019675,0.005956396283356619
0.00018041864093920718,0.0001756822335849959,0.005905319450617737
0.00020022003718155845,0.00019188173782448855,0.005836920324484955
0.0002221946860939524,0.00021009153175851857,0.005748857342175319
0.0002465811075822604,0.00023808642506927596,0.005649152335227199
0.0002736439997074672,0.0002954926367078457,0.0055378921393560284
0.00030367711180354605,0.0004227022075682946,0.00542359855214191
0.00033700643292719284,0.0006727796903557712,0.0053126661720850005
0.0003739937302478798,0.0010829565630054861,0.005215444000185085
0.0004150404757850477,0.001677799845360178,0.005146222486416886
0.00046059220411451084,0.0024951315378269846,0.005116655700912704
0.0005111433483440171,0.0035802084361190494,0.005143158127011875
0.0005672426068491978,0.004980492291714631,0.005234634308227021
0.0006294988990221888,0.006715433351760159,0.0054012176820514585
0.0006985879746785249,0.008799127839845709,0.00564365293487342
0.0007752597488629464,0.01124131581259917,0.005964618021606334
0.000860346441668451,0.014034030815770865,0.006359829153081178
0.0009547716114208065,0.017187838939508825,0.00683741491373113
0.001059560179277617,0.020694680174155277,0.007398061471850872
0.0011758495540521582,0.024638255799189608,0.008036728423031712
0.0013049019780144017,0.02913151840020069,0.008733909011467478
0.001448118227674533,0.03433623482337095,0.009489743166711726
0.0016070528182616384,0.04041142692457979,0.010331331522730606
0.0017834308769319094,0.047529858929700755,0.0112773875782561
0.0019791668678535573,0.055906874519104886,0.012339292462604734
0.002196385372416547,0.06582104896159227,0.013512789317654697
0.002437444150122222,0.07780527646352758,0.014828722808803447
0.002704959730463137,0.09240835813997225,0.016309256808599144
0.0030018358135755923,0.11020331073387118,0.017999734822310483
0.003331294787934677,0.1314925511624718,0.019927679121354396
0.0036969127071950323,0.15656538215737562,0.02214238753164294
0.00410265810582719,0.18527823177384753,0.02468623515100562
0.004552935074866948,0.2174518087665794,0.027608756292047953
0.00505263106533568,0.25249777858432326,0.030965585539226532
0.005607169938205458,0.28930476962175466,0.03480787182976542
0.006222570836730231,0.32648452540119854,0.03923577758375183
0.006905513520162331,0.3624050141949193,0.04432086034979751
0.007663410868007463,0.39693768403110663,0.05019888015537435
0.008504489341802686,0.4268546609134207,0.05694218058313896
0.009437878277775391,0.4418270894031646,0.06469101064679106
0.010473708979594508,0.426985098896181,0.0734948624974526
0.011623224686798541,0.38057898664197853,0.08345007714925576
0.01289890261253308,0.31737950651144314,0.09455971649097442
0.014314589375234785,0.24898490433152143,0.10679421848525787
0.015885651294280528,0.17939848893246282,0.12007509409308131
0.01762914118095948,0.11213960604405479,0.1341672093089316
0.01956398343517065,0.05817209506995692,0.1489269143675825
0.021711179456945052,0.028020955745838547,0.16390293882508786
0.02409403560239527,0.017535419847837578,0.17884010990084795
0.026738416158399492,0.014575373700414134,0.19309326116750333
0.029673024081888724,0.01224156534750334,0.20621059456936308
0.032929712550971546,0.009845128001503776,0.21748680049878563
0.036543830709572546,0.00800247453874492,0.2262938722283421
0.040554607358408275,0.006672223488060346,0.23218925871945997
0.04500557675700498,0.005579538645310596,0.23461164010488972
0.0499450511585514,0.004642614297426235,0.233689314569509
0.05542664520663107,0.0038751090691298215,0.2292869873827677
0.06150985788580504,0.003267982349403972,0.22200118469216581
0.06826071834272393,0.002791268028923856,0.21223180192548766
0.0757525025877192,0.0024191363578314525,0.20067110769843038
0.08406652885618333,0.0021377909417672177,0.18799612410398744
0.09329304026284696,0.0019334179314234158,0.17469076854440624
0.10353218432956637,0.0017932913294534307,0.16135386091668943
0.11489510001873086,0.0017028426321065032,0.1482313134302164
0.1275051240713013,0.001648368376793057,0.13577220445597293
0.1414991297434576,0.0016175982011100221,0.12407459424646604
0.15702901247293774,0.001604841169643531,0.11333430658538399
0.17426333860096507,0.0016047711219026794,0.10353228922079888
0.19338917504552322,0.0016145943930806763,0.09471889485357045
0.21461411978584058,0.0016297993041026455,0.08687405494551616
0.23816855519761607,0.001648239914288105,0.0799182166472869
0.2643081486974108,0.0016677994255491204,0.07376753743719255
0.29331662783900486,0.0016886787196951204,0.0682791442766986
0.32550885998350565,0.0017140996666392832,0.06340322874506601
0.36123426997094304,0.0017478061714851663,0.05900950298369865
0.40088063288984643,0.001797379358196545,0.055066037443997906
0.4448782831127585,0.0018687480071812163,0.05146091784195376
0.4937047852839004,0.001969378215344843,0.04817064298142112
0.5478901179593945,0.002103706250643764,0.045117630275051564
0.6080224261649427,0.0022764022859497026,0.04227659708688765
0.67475440531107,0.002487903769622221,0.0396067617857319
0.748810385759003,0.0027391635380612294,0.03707887296221732
0.8309941949353403,0.003026300432142965,0.03468870628267298
0.9221978823334341,0.00334664354603813,0.03240413218415246
1.0234114021054528,0.0036949149016765196,0.030240443577535657
1.135733358343105,0.004065302799234378,0.02816573034205021
1.2603829296797273,0.004454145482462037,0.026199187927597015
1.3987131026472386,0.004852734631980664,0.02431676815933886
1.552225357427048,0.005258913536962561,0.02253331853743253
1.7225859653987874,0.005661815602734991,0.020841049928806376
1.9116440753857036,0.006060546401256666,0.01925046296788355
2.121451784910632,0.006445389395149574,0.017773986599891614
2.35428641432242,0.0068129539678068105,0.016416564806153517
2.612675225563332,0.007154663225088706,0.015198600632851922
2.8994228538828812,0.0074624387428873186,0.014116746266518992
3.2176417502507353,0.007732471763438786,0.013183449431961404
3.5707859649004625,0.007952870465719434,0.012385902214750711
3.9626886387014784,0.008123734892626846,0.011723312773676251
4.397603609302721,0.008231372924685561,0.011175119135899666
4.880251583654434,0.008277878944137222,0.010728362582196992
5.415871378079476,0.008252175564983285,0.010352393131929667
6.010276782070388,0.008153947718157964,0.010011255132603281
6.669919663030129,0.007976885392903525,0.009653897997648904
7.401959996915652,0.007716288030216774,0.009232354945427217
8.214343584919439,0.0073724165333081005,0.008712905675552156
9.115888299750837,0.006934983133514633,0.008078918567992895
10.11637979766207,0.006406304342847565,0.00736091554742496
11.226677735108158,0.005779214135464047,0.006557960698912938
12.458833642950081,0.00506708324658174,0.00564329983413892
13.826221737646593,0.0042564722990324514,0.0045787395374788506
15.343684089300131,0.0033100893757326702,0.003393724519547043
17.02769172225898,0.0022296898550243434,0.0021872998881908128
18.896523396912116,0.001184856118411528,0.00112979715149591
20.970464013232306,0.0004578805570007314,0.0004303586110565869
23.27202478960412,0.00012252807911933644,0.00011442325424279777
25.826187606826746,2.2170823606724802e-05,2.0648019851597572e-05
28.66067616948256,2.684516456197318e-06,2.4973292891354093e-06
31.80625692794119,2.165689466510694e-07,2.0137589224244997e-07
35.297073027306574,1.1619729667998653e-08,1.0802562000284122e-08
39.17101490809261,4.143332104077024e-10,3.851659160166479e-10
43.47013158125035,9.815879768252412e-12,9.124605925823843e-12
48.241087041653735,1.544836707332993e-13,1.4360253846734682e-13
53.535666774107185,1.6150604501973045e-15,1.5012953979332876e-15
59.411339849650396,1.1216034330808166e-17,1.0425954481787778e-17
65.93188271333541,5.174051898747037e-20,4.809577425122217e-20
73.16807143427206,1.585483551316459e-22,1.4737972336566685e-22
81.19844993184009,3.227242843276554e-25,2.9999055709857296e-25
90.11018251665037,4.363553139492785e-28,4.056170328418582e-28
100.0,3.919110573396558e-31,3.6430356557993907e-31
