tau,gamma
1e-07,6.797690870390912e-05
1.1097524964120721e-07,0.0003489193488387007
1.2315506032928263e-07,0.0012148332489095215
1.3667163564620074e-07,0.00294913967160364
1.5167168884709241e-07,0.005274118253132356
1.6831803533309585e-07,0.0075753375328826604
1.867913599020781e-07,0.00957231636805164
2.0729217795953698e-07,0.011296747034935668
2.300430119772917e-07,0.01283422153176997
2.5529080682395163e-07,0.01420543841768783
2.833096101839324e-07,0.015397748957618394
3.1440354715915e-07,0.016436267779610093
3.489101213406774e-07,0.017324204508023532
3.872038781812557e-07,0.0180936798521115
4.2970047043208437e-07,0.018743393717998318
4.768611697714474e-07,0.019298745943594896
5.291978735958437e-07,0.019769084384219232
5.872786613189477e-07,0.020172697384046707
6.517339604882421e-07,0.02053251692802855
7.232633896483533e-07,0.020857793995299356
8.026433522257174e-07,0.02117921878904669
8.907354638610439e-07,0.02149518556739703
9.884959046625586e-07,0.02182957118728475
1.096985797892384e-06,0.022164889463073625
1.217382727739662e-06,0.022504967940061082
1.3509935211980278e-06,0.022815585554272683
1.499268432786047e-06,0.023078498774642735
1.6638168860761274e-06,0.023257424791463706
1.8464249428955464e-06,0.02332045259132684
2.049074689815846e-06,0.023252391093365504
2.2739657523579273e-06,0.023023194687294378
2.523539170434766e-06,0.022652594122143148
2.800503894183631e-06,0.022136996405159735
3.107866187782014e-06,0.02154099928138532
3.4489622604057595e-06,0.02092304501651297
3.827494478516315e-06,0.02040334598375905
4.247571552536894e-06,0.020127742464794384
4.713753134116729e-06,0.02026309265610519
5.2310993080562585e-06,0.020995304441286756
5.805225516094895e-06,0.022458638094830414
6.44236350872137e-06,0.024724589578554338
7.149428986597577e-06,0.027818244004256157
7.934096665797492e-06,0.03171164004257117
8.804883581643465e-06,0.03635571740610536
9.771241535346501e-06,0.041748199573592264
1.0843659686896109e-05,0.04783516389002966
1.2033778407775906e-05,0.05461200160750987
1.3354515629298974e-05,0.061974393906798944
1.48202070579886e-05,0.06993081958592991
1.6446761779946626e-05,0.07844040469009063
1.8251834943190462e-05,0.08751861554587861
2.0255019392306664e-05,0.09717317597804252
2.2478058335487252e-05,0.1073562759839672
2.4945081352303165e-05,0.11809813216629424
2.7682866303920665e-05,0.1292727414710475
3.072112998861759e-05,0.14096197069032426
3.409285069746814e-05,0.1530237025806444
3.783462617131933e-05,0.16552560198044325
4.1987070844439056e-05,0.17830136014905082
4.659525668664687e-05,0.19129767139934253
5.170920242896755e-05,0.20434261799338818
5.7384416483024044e-05,0.2172273431796803
6.368249944718586e-05,0.22987838593179935
7.067181273927492e-05,0.2419371691724084
7.842822061337681e-05,0.253352373317994
8.703591361485166e-05,0.26362765911934916
9.658832241158708e-05,0.2727257397705979
0.00010718913192051276,0.28020352819506383
0.00011895340673703195,0.28595544801661654
0.0001320088400831418,0.2897038733658386
0.00014649713983072864,0.2912330619323558
0.0001625755666443795,0.2905548709606842
0.00018041864093920718,0.28741443561094465
0.00020022003718155845,0.28210765061863685
0.0002221946860939524,0.2744769863891149
0.0002465811075822604,0.26497304506634073
0.0002736439997074672,0.25366550882210387
0.00030367711180354605,0.24099649697977696
0.00033700643292719284,0.22729287884110805
0.0003739937302478798,0.21288461519610752
0.0004150404757850477,0.19826658481481363
0.00046059220411451084,0.18368203287406432
0.0005111433483440171,0.1696947971172737
0.0005672426068491978,0.15652118954663524
0.0006294988990221888,0.14461633469290783
0.0006985879746785249,0.1341753777869029
0.0007752597488629464,0.1255029245201041
0.000860346441668451,0.11878693183666683
0.0009547716114208065,0.11419612538835484
0.001059560179277617,0.11186585213297726
0.0011758495540521582,0.1118668182772601
0.0013049019780144017,0.11425629382305928
0.001448118227674533,0.11902309829512014
0.0016070528182616384,0.12613937050327356
0.0017834308769319094,0.13546083935819475
0.0019791668678535573,0.14684806098122127
0.002196385372416547,0.15994038622620033
0.002437444150122222,0.17450435440773726
0.002704959730463137,0.18998061088642304
0.0030018358135755923,0.2060634274560374
0.003331294787934677,0.22213690922206564
0.0036969127071950323,0.23779131320098734
0.00410265810582719,0.2525242495541936
0.004552935074866948,0.2658288658616977
0.00505263106533568,0.2775069762417724
0.005607169938205458,0.28706552272139313
0.006222570836730231,0.2946164235255297
0.006905513520162331,0.2998208811107146
0.007663410868007463,0.30294233537640036
0.008504489341802686,0.3038908740232006
0.009437878277775391,0.30287668177195765
0.010473708979594508,0.3000410840158031
0.011623224686798541,0.295429838759353
0.01289890261253308,0.2893469354861093
0.014314589375234785,0.28169770991884924
0.015885651294280528,0.27285702509624365
0.01762914118095948,0.26269496553097194
0.01956398343517065,0.2515405236674915
0.021711179456945052,0.2393358252990267
0.02409403560239527,0.2262891325787045
0.026738416158399492,0.21249207748441934
0.029673024081888724,0.19802837910495666
0.032929712550971546,0.18315278970866333
0.036543830709572546,0.16790062881936313
0.040554607358408275,0.1526584555289776
0.04500557675700498,0.13753633581292607
0.0499450511585514,0.12298287932582982
0.05542664520663107,0.10924927648107194
0.06150985788580504,0.09670122767934099
0.06826071834272393,0.0856262142747551
0.0757525025877192,0.07618142233360338
0.08406652885618333,0.06848811859960593
0.09329304026284696,0.06245159127530146
0.10353218432956637,0.05791584887590469
0.11489510001873086,0.05458322987380575
0.1275051240713013,0.05213424065490007
0.1414991297434576,0.050182909106028795
0.15702901247293774,0.04842532399012075
0.17426333860096507,0.04652930435743084
0.19338917504552322,0.04432825110751643
0.21461411978584058,0.041678906562876095
0.23816855519761607,0.038573394100126106
0.2643081486974108,0.03509503455799698
0.29331662783900486,0.031342746031274064
0.32550885998350565,0.027523530665679707
0.36123426997094304,0.023786118206134438
0.40088063288984643,0.020346947843197568
0.4448782831127585,0.017368713680335303
0.4937047852839004,0.015010606467166898
0.5478901179593945,0.013401507990451577
0.6080224261649427,0.012594115992324037
0.67475440531107,0.012595320619699193
0.748810385759003,0.013324016453403639
0.8309941949353403,0.014608338149213492
0.9221978823334341,0.01623214713638746
1.0234114021054528,0.017894893107040403
1.135733358343105,0.01929738918574371
1.2603829296797273,0.020177555692817532
1.3987131026472386,0.020296707319558033
1.552225357427048,0.019599038740052702
1.7225859653987874,0.018075512565262544
1.9116440753857036,0.0158705766430131
2.121451784910632,0.013225355338431107
2.35428641432242,0.010440938506186683
2.612675225563332,0.007915204305622233
2.8994228538828812,0.005898756429117185
3.2176417502507353,0.004506969348878189
3.5707859649004625,0.0037114414520739683
3.9626886387014784,0.0033287853338910597
4.397603609302721,0.003160126757102622
4.880251583654434,0.003080743616499969
5.415871378079476,0.0030201562078330715
6.010276782070388,0.0029505628301675782
6.669919663030129,0.0028617012915469124
7.401959996915652,0.0027495317214446587
8.214343584919439,0.002615489323783596
9.115888299750837,0.0024663340232526833
10.11637979766207,0.0023224331296712295
11.226677735108158,0.0021891499781516717
12.458833642950081,0.0020536680305978656
13.826221737646593,0.0019078895569268888
15.343684089300131,0.0017861643426826533
17.02769172225898,0.0017283208181388045
18.896523396912116,0.0017145796721272297
20.970464013232306,0.001681891453787882
23.27202478960412,0.0016018103345431824
25.826187606826746,0.001494223537010918
28.66067616948256,0.0013795575691805313
31.80625692794119,0.0012669694589818824
35.297073027306574,0.0011614494169383835
39.17101490809261,0.0010780587696959476
43.47013158125035,0.0010269969060872732
48.241087041653735,0.0009964115136725006
53.535666774107185,0.000962885760810785
59.411339849650396,0.0009177340771177947
65.93188271333541,0.0008671146326155759
73.16807143427206,0.000819029651602101
81.19844993184009,0.0007804029325592319
90.11018251665037,0.0007501114951658696
100.0,0.0007188452136652379
