tau,gamma,gamma_lo,gamma_hi
-3.26115335049959,4.56650971938022e-08,1.0536544924034e-11,2.15860669054938e-05
-3.15554166129349,7.11711794230341e-07,5.98441821551177e-11,0.000120675275096551
-3.05442408652169,7.94492544571189e-06,3.18465241149152e-10,0.000550411608829984
-2.95780062618419,6.52303456299804e-05,1.80848166334699e-09,0.00205041966914811
-2.865671280281,0.000404696705403679,8.72282173206465e-09,0.00646176394643462
-2.7780360488121,0.00194724810168522,2.96901294328541e-08,0.0174346698698646
-2.71418686472759,0.00552698896473811,7.22430654745173e-08,0.0339737572320105
-2.69489493177751,0.00744868359767802,9.91510708012642e-08,0.0412272010003782
-2.61624792917722,0.0231905247849899,3.19261028070344e-07,0.0847525376885145
-2.54209504101123,0.0600854862902914,9.69022541446498e-07,0.155467538847683
-2.47243626727955,0.132300087145334,5.79074550677592e-06,0.257455967439924
-2.40727160798217,0.252484160798042,0.000122087906058142,0.391606500882702
-2.34660106311908,0.425394431062498,0.00199976917528758,0.55036715370648
-2.32310769293391,0.509939751225337,0.00532856301228238,0.621463381412968
-2.29042463269031,0.643697140535483,0.0185864008049699,0.730868945589101
-2.23874231669583,0.888792144472003,0.100526002019588,0.942216325542603
-2.19155411513566,1.13629913400003,0.384576692978717,1.2254990375686
-2.14886002800979,1.36317696726516,0.982532627196755,1.60453882359593
-2.11066005531822,1.55317508544508,1.27079362931927,2.12451120433147
-2.07695419706095,1.69897497195599,1.36949849996873,2.86034778375204
-2.04774245323799,1.80131628677914,1.43286881112572,3.70364291087108
-2.02302482384932,1.86644715700008,1.47443697120149,4.23733673117097
-2.00280130889496,1.90326258573785,1.50087918848626,4.48308780135263
-1.98707190837491,1.9209755273903,1.51610791463983,4.51605293369338
-1.97583662228915,1.92759657746438,1.52311240734209,4.49909803378115
-1.9690954506377,1.92912779167881,1.52709592455656,4.45784522309846
-1.96684839342055,1.92922993395594,1.52772303212663,4.43389649612866
-1.96460133620339,1.92912783692548,1.52854102512566,4.40573626590106
-1.95786016455194,1.927596758528,1.53084675554705,4.29518646142906
-1.94867018802506,1.92255832470266,1.53142049654079,4.08952790831752
-1.94662487846619,1.9209759355341,1.53149571018592,4.03676068167914
-1.93089547794613,1.90326331492562,1.53037651491038,3.61234509515515
-1.91067196299177,1.86644830825694,1.52081866771515,3.01079353316144
-1.88595433360311,1.80131797597403,1.48015925262371,2.50692698466686
-1.85674258978014,1.6989773423403,1.38291989113769,2.06708265440752
-1.82303673152287,1.55317832683065,0.843042699856478,1.72631893530662
-1.7848367588313,1.36318134474042,0.367184293809947,1.45659656919481
-1.74214267170543,1.13630503083858,0.118445249749893,1.23333705393072
-1.69495447014526,0.88880012680778,0.0249334012032526,1.04709903529044
-1.64327215415078,0.643708056141266,0.00343391834713079,0.864350012247871
-1.59087435000105,0.438336812437921,0.000460486780282881,0.690450078478861
-1.58709572372201,0.425409562271356,0.000394809641632961,0.678538384379504
-1.52642517885893,0.252505464037796,0.000161271539457234,0.502088863667038
-1.46126051956154,0.13233057160487,0.00013084619473382,0.344013511112033
-1.39160174582986,0.060129816533375,0.000106144048057663,0.216490966814727
-1.31744885766387,0.023255983978017,0.000102202919230154,0.122685506437892
-1.24972017886189,0.00888134955133281,8.53816725458627e-05,0.0688692231338234
-1.23880185506358,0.00754671673119511,8.02196101639286e-05,0.0624362295453965
-1.15566073802899,0.0020959352263251,7.42476470818682e-05,0.0279598623644072
-1.0680255065601,0.000632709648771207,6.9086830536057e-05,0.0108885159366728
-0.975896160656901,0.000418137170160097,6.8817657339213e-05,0.00391138569490514
-0.925207674607549,0.000468449002408756,7.08300683749591e-05,0.00338862878013409
-0.879272700319403,0.000558189086773738,7.24440409969444e-05,0.00344435042176668
-0.778155125547603,0.000863258193689248,8.54480068027305e-05,0.00462939210956238
-0.6725434363415,0.00135659811860981,0.000127153897447843,0.00636785160972194
-0.617336837238049,0.00170721621191086,0.000167016385010977,0.00749659731431435
-0.326107666753394,0.00531517260100467,0.000825849933376317,0.0168281189777169
-0.0515201631535671,0.0137713499088671,0.00333503254177958,0.0330504460806112
0.206425673561415,0.0303226484316759,0.0104685813155859,0.0579795814799607
0.44772984339156,0.0578683598175818,0.026660095916463,0.0923992709150435
0.672392346336868,0.0974987058375053,0.0568144051877647,0.13444678581936
0.880413182397339,0.147532817325656,0.103071518928465,0.181443806215248
1.07179235157297,0.203707613368182,0.163085026222674,0.231635870967188
1.24652985386376,0.260435222298633,0.23019365126195,0.283357898005345
1.40462568926973,0.312434704639119,0.289532824836442,0.336751617184711
1.54607985779084,0.355981496407445,0.326336330693578,0.390755416902361
1.67089235942713,0.389398223244619,0.35037505191058,0.436652101751078
1.77906319417857,0.412854413826423,0.365741818273506,0.470674980710185
1.87059236204518,0.427782116367185,0.375675512623068,0.494634954903277
1.94547986302695,0.436220033004604,0.381785537546094,0.507890701654258
2.00372569712388,0.440279739155811,0.384446930671638,0.514553699936286
2.04532986433597,0.441797234132924,0.38505186904146,0.516747892687112
2.07029236466323,0.442148167389233,0.385118564238778,0.517347949838345
2.07861319810565,0.442171572848572,0.38512580860117,0.517486503433801
2.08693403154807,0.442148167389233,0.385088568265102,0.517626155037051
2.11189653187532,0.441797234132924,0.385256339102169,0.517035085212373
2.15350069908742,0.440279739155811,0.38425309840616,0.514435850591469
2.21174653318435,0.436220033004604,0.380978823257202,0.508065144828189
2.28663403416612,0.427782116367185,0.37502479556869,0.494375259724382
2.37816320203273,0.412854413826423,0.364879269499817,0.469854612986518
2.48633403678417,0.389398223244619,0.348794096044057,0.434286172265846
2.61114653842045,0.355981496407445,0.324038548415012,0.389054147229406
2.75260070694157,0.312434704639119,0.283552796928874,0.336185132181844
2.91069654234754,0.260435222298633,0.224286633283398,0.283551489539922
3.08543404463833,0.203707613368182,0.158462547596778,0.232507251663241
3.27681321381396,0.147532817325656,0.0994687462596135,0.182967486652051
3.48483404987443,0.0974987058375053,0.0545021824010815,0.135639811865547
3.70949655281974,0.0578683598175819,0.0254659158373069,0.0932546495871912
3.95080072264988,0.0303226484316759,0.0098036238440149,0.058890933185915
4.20874655936487,0.0137713499088671,0.00305884646109974,0.0336315751836911
4.48333406296469,0.00531517259993642,0.000768903743202518,0.0171133098205177
4.77456323344935,0.00170720635782717,0.000145668062468154,0.00762938028633652
5.08243407081885,0.000446300146590859,2.03033499592957e-05,0.00295548335552566
5.40694657507319,9.27541259530001e-05,2.05809298766586e-06,0.00096345520492704
5.74810074621235,1.4950156518449e-05,1.43304077116265e-07,0.000264907434018927
6.10589658423636,1.82076498921075e-06,6.5912108612145e-09,5.95038740027739e-05
6.48033408914521,1.63040432959489e-07,1.94670685537687e-10,1.08471185655538e-05
6.87141326093889,1.0431719439796e-08,3.47810596221324e-12,1.53062415319645e-06
