tau,gamma,gamma_lo,gamma_hi
-3.43240407972774,9.56317868943884e-09,4.73820272281809e-09,1.8958979862595e-08
-2.98767338996505,1.50956217391029e-07,9.3053394913653e-08,2.66575837530643e-07
-2.89541274008618,3.20107568218094e-07,2.0920865534738e-07,9.93816003589954e-07
-2.82131194830549,1.38386732159161e-06,4.87092123281253e-07,8.58967223783667e-06
-2.75036438170695,1.16477807851201e-05,1.57785471964443e-06,6.49416933741343e-05
-2.68257004029057,9.16640282108079e-05,1.15662913820097e-05,0.00038526850226415
-2.61792892405635,0.000564593564674849,9.91375129361333e-05,0.00180518587405725
-2.56186741040502,0.00237677495037593,0.000570490993815811,0.0060981018110271
-2.55644103300428,0.00271242650340926,0.000670443002545268,0.0068196378219033
-2.49810636713437,0.0103714661396,0.00345888485601949,0.0213288911150344
-2.44292492644662,0.0322860872404734,0.0138758190010363,0.0560523319487412
-2.39089671094102,0.0836476326876562,0.0443500149489506,0.12599446866354
-2.34202172061759,0.184176982175366,0.116347443503455,0.247129942516081
-2.29629995547631,0.351483667130271,0.255591856000963,0.429223984905656
-2.25373141551718,0.592189404152839,0.482947511671205,0.67044449356789
-2.21431610074022,0.896085034780273,0.797894072058812,0.955945396049586
-2.17805401114541,1.237277725684,1.1776039716854,1.26395827256699
-2.15498614104766,1.47551875254279,1.44944245292235,1.49471675635996
-2.14494514673276,1.58182820639647,1.54824129159871,1.6083777875407
-2.11498950750226,1.89766141770575,1.81480799728952,1.98369049473778
-2.08818709345393,2.16215529688288,2.0329234205593,2.31498532843507
-2.06453790458775,2.36512185338659,2.19998720671116,2.57568941823143
-2.04404194090372,2.50759068477231,2.31859276097752,2.75857001295125
-2.02669920240186,2.59825959156124,2.39352456208623,2.87298550259795
-2.01250968908215,2.64951102934013,2.4370490601107,2.93516769192005
-2.0014734009446,2.67417007245794,2.45909435032988,2.96480963255883
-1.99359033798921,2.68338802999918,2.46854419869017,2.97363898679646
-1.98886050021597,2.68552018320244,2.47149029342316,2.97454689641114
-1.98728388762489,2.68566257110656,2.47213203594506,2.97365063351676
-1.98570727503382,2.68552064365315,2.47235353637771,2.97282439083559
-1.98097743726058,2.6833898720181,2.47199486806839,2.96721697033096
-1.97309437430519,2.67417421910779,2.46707304411895,2.950463562751
-1.96205808616764,2.64951841125229,2.45191137773886,2.91092472232571
-1.94786857284793,2.59827115907344,2.41583319989434,2.83625616216474
-1.93052583434606,2.5076074292745,2.34847494739339,2.70716016843841
-1.91002987066204,2.36514484075175,2.24013575744699,2.51220916884404
-1.88638068179586,2.16218571622944,2.0808203751478,2.24541752857954
-1.85957826774753,1.89770064940192,1.86403599460556,1.92503004945248
-1.82962262851703,1.58187791430741,1.50448208591029,1.61848828022145
-1.79651376410438,1.23733998035271,1.10798528336339,1.31827233758625
-1.76702958189298,0.955919533614284,0.803240545179309,1.06329945615833
-1.76025167450957,0.896162476740604,0.741044956140993,1.00768413037877
-1.72083635973261,0.592285460181251,0.44194436316761,0.714075649951082
-1.67826781977348,0.351602837321759,0.230779688776268,0.461992142467902
-1.6325460546322,0.184325222766326,0.103124839760482,0.269128004576585
-1.58367106430877,0.0838328691880419,0.0388552872880529,0.139197841942849
-1.53164284880317,0.0325189055242876,0.0121618270207745,0.0627934033027706
-1.47646140811542,0.0106660467703399,0.00327585354561084,0.0243664557687372
-1.41812674224551,0.00308781112542037,0.000994901753856635,0.00813556184709363
-1.39799773294096,0.00205890906059488,0.000776335135520753,0.00549445068895918
-1.35663885119344,0.00104640337419813,0.000614108807731419,0.00250030899044157
-1.29199773495922,0.000714431145498382,0.000589910565444477,0.000994499066827222
-1.22420339354284,0.00082197296102333,0.000677459321691917,0.00102660665736341
-1.1532558269443,0.00106220052889009,0.000851827570744977,0.00132720458058754
-1.07915503516361,0.00139662667263628,0.00112966854619158,0.00172713199599217
-1.0478905941916,0.00156508356376766,0.00127115914241113,0.00192641837400742
-0.716708165644916,0.00487263347438492,0.00414632242267848,0.00573037290136838
-0.404450447300891,0.0126247528733447,0.0111634853383338,0.0142939865204521
-0.111117439159542,0.0277979969609757,0.0253607567315205,0.0304776402485523
0.163290858779141,0.0530502635338862,0.0496377370117804,0.0567313146165328
0.418774446515156,0.0893810029383454,0.0853401107866329,0.0936312246988532
0.655333324048504,0.135249294496935,0.131144760750164,0.139427675380294
0.872967491379186,0.186746999692183,0.183274525200749,0.190212518077059
1.07167694850719,0.238751490797413,0.236315183126961,0.241344340412984
1.25146169543254,0.286421517224364,0.284287291639608,0.288886469422186
1.41232173215522,0.326342620684826,0.323356558307389,0.329663550780764
1.55425705867522,0.356977084331977,0.352847552735563,0.361548861448054
1.67726767499257,0.378480321952472,0.373467366784659,0.383910865379334
1.78135358110724,0.392165150004265,0.386563724785509,0.398126608856054
1.86651477701924,0.399900529107857,0.393925978915905,0.406155042426135
1.93275126272858,0.403622225763345,0.397420890312382,0.409982806982467
1.98006303823525,0.405013374721099,0.398772531177945,0.411392216086443
2.00845010353925,0.405335089416119,0.399070405818188,0.411711554220021
2.01791245864059,0.405356546146359,0.399086263768477,0.411733480310131
2.02737481374192,0.405335089416119,0.399053350513593,0.4116832009053
2.05576187904592,0.405013374721099,0.398751562723938,0.411350857870119
2.10307365455259,0.403622225763345,0.397442870617149,0.409812984211038
2.16931014026193,0.399900529107857,0.393924226299922,0.405815318294169
2.25447133617393,0.392165150004265,0.386609217730346,0.397632819094326
2.35855724228861,0.378480321952472,0.373573325563463,0.383335884231973
2.48156785860595,0.356977084331977,0.352884755722033,0.360904254744038
2.62350318512596,0.326342620684826,0.323173827430862,0.329187767213007
2.78436322184863,0.286421517224364,0.283686262444686,0.288729763351408
2.96414796877398,0.238751490797413,0.235590316867342,0.241661270722445
3.16285742590199,0.186746999692183,0.182424110563938,0.190735187542588
3.38049159323267,0.135249294496935,0.130337554415623,0.139963145027961
3.61705047076602,0.0893810029383454,0.0846285417502997,0.0940732999437512
3.87253405850203,0.0530502635338862,0.0491173808173631,0.0570380289702065
4.14694235644071,0.0277979969609757,0.0250420602974569,0.0306750948892466
4.44027536458206,0.0126247528733447,0.0109884768031649,0.0143786063726728
4.75253308292609,0.00487263347438176,0.00407333743526568,0.00576947616411236
5.08371551147277,0.00156506504547483,0.00124639166571009,0.00193937227219233
5.43382265022213,0.000409141376505087,0.000307899673637965,0.000535193439427749
5.80285449917415,8.503145486019e-05,5.99038967779551e-05,0.000118617590866057
6.19081105832884,1.37054125203597e-05,8.94492095045318e-06,2.05653421163209e-05
6.5976923276862,1.66916883103979e-06,9.95773258177735e-07,2.72662048727199e-06
7.02349830724622,1.49465752311714e-07,8.06222103259583e-08,2.6894909249921e-07
7.46822899700891,9.56317868930858e-09,4.59765705602624e-09,1.92178053678461e-08
