tau,gamma,gamma_lo,gamma_hi
-18.4206807439524,9.04964078697365e-05,1.02638634462873e-22,0.00167185019471233
-18.3359702555813,0.000113024731160626,2.19524741695813e-22,0.00201078507285257
-18.2512597672103,0.000141008159624575,4.67404083635846e-22,0.00241638725481982
-18.1665492788393,0.000175729076194282,9.90690385569999e-22,0.0029013492594636
-18.0818387904683,0.000218761870114518,2.09035386784213e-21,0.00348069587157347
-17.9971283020973,0.000272037170204655,4.390743778706e-21,0.00417219632362821
-17.9124178137263,0.000337919683398461,9.18105935653545e-21,0.0049968462348951
-17.8277073253552,0.000419302402215359,1.91110220643496e-20,0.00597943055014877
-17.7429968369842,0.000519720480441169,3.96014831035196e-20,0.00714918043282547
-17.6582863486132,0.000643488710298543,8.16912245269458e-20,0.00854053902398938
-17.5735758602422,0.000795867283731998,1.67755118245436e-19,0.0101940532110777
-17.4888653718712,0.000983261404792916,3.42935599774898e-19,0.012157411094792
-17.4041548835001,0.0012134613622623,6.97888080578047e-19,0.0144866477386421
-17.3194443951291,0.00149593089790787,1.41382419335853e-18,0.0172475450780094
-17.2347339067581,0.00184215314649426,2.851290422869e-18,0.0205172556036442
-17.1500234183871,0.00226604511379649,5.72432021409167e-18,0.024386183673162
-17.0653129300161,0.00278445363856414,1.14404419717407e-17,0.02896016310423
-16.9806024416451,0.00341774809971137,2.27613545406748e-17,0.0343629751320646
-16.895891953274,0.00419052783368735,4.50806140278322e-17,0.040739256945935
-16.811181464903,0.00513246537926095,8.88828476557903e-17,0.04825785793658
-16.726470976532,0.00627931033651472,1.74454636351606e-16,0.0571157085788693
-16.641760488161,0.00767408289186349,3.40865847304265e-16,0.0675422756407636
-16.55704999979,0.00936849101015133,6.63011225922937e-16,0.0798046872590229
-16.4723395114189,0.0114246110289413,1.28379208011848e-15,0.094213622472808
-16.3876290230479,0.0139168780227607,2.47459949906949e-15,0.111130072187784
-16.3029185346769,0.0169344399646658,4.74844669898339e-15,0.130973092396361
-16.2182080463059,0.0205839385436037,9.07057111079931e-15,0.154228685957517
-16.1334975579349,0.0249927896610283,1.72486105146803e-14,0.18145996650802
-16.0487870695639,0.0303130483111073,3.26520172352171e-14,0.213318777315297
-15.9640765811928,0.0367259559491091,6.15321849463234e-14,0.250558959284103
-15.8793660928218,0.0444472837992389,1.15433290214633e-13,0.294051486102758
-15.7946556044508,0.0537336030988743,2.15573925804694e-13,0.344801710883221
-15.7099451160798,0.0648896333012235,4.00772399733984e-13,0.403968997851723
-15.6252346277088,0.0782768420732686,7.41712840536856e-13,0.472889044937848
-15.5405241393377,0.0943234968730886,1.36650180082954e-12,0.553099238760812
-15.4558136509667,0.113536397347551,2.50623065266643e-12,0.646367422809482
-15.3711031625957,0.136514551172,4.57581317665314e-12,0.754724502860864
-15.2863926742247,0.163965093711176,8.31671750545698e-12,0.88050136119936
-15.2016821858537,0.196721794509685,1.50477661587965e-11,1.02637060332086
-15.1169716974826,0.235766541658597,2.71036971251815e-11,1.19539371788079
-15.0322612091116,0.282254249114984,4.85983423067003e-11,1.39107429303633
-14.9475507207406,0.337541692702808,8.6746266880799e-11,1.61741800041493
-14.8628402323696,0.403220848473458,1.54140424466211e-10,1.87900013210008
-14.7781297439986,0.481157383078018,2.72658301748283e-10,2.18104155665323
-14.6934192556276,0.573535030574984,4.80128314625549e-10,2.52949404768976
-14.6087087672565,0.682906684488583,8.41651553987602e-10,2.93113603329623
-14.5239982788855,0.812253138813187,1.46873606472679e-09,3.39367991701943
-14.4392877905145,0.965050527941733,2.551476700192e-09,3.92589223167037
-14.3545773021435,1.14534764413503,4.41241012684091e-09,4.53772800615378
-14.2698668137725,1.35785445313644,7.59620290436297e-09,5.24048085332868
-14.1851563254014,1.60804328489387,1.30182815265957e-08,6.04695042387598
-14.1004458370304,1.90226434812555,2.22099294856017e-08,6.97162901761744
-14.0157353486594,2.24787740571596,3.77204720030028e-08,8.03090929998084
-13.9310248602884,2.65340165371857,6.37739732869972e-08,9.24331523757998
-13.8463143719174,3.12868607112438,1.07336208594986e-07,10.6297585433617
-13.7616038835464,3.68510275155857,1.79839648160767e-07,12.2138231085902
-13.6768933951753,4.33576599267414,2.99958419027108e-07,14.0220800961342
-13.5921829068043,5.09578020514318,4.98050162161691e-07,16.0844365770633
-13.5074724184333,5.9825200116334,8.2323065482188e-07,18.4345208103013
-13.4227619300623,7.01594623771712,1.35458543105167e-06,21.1101074927778
-13.3380514416913,8.21896185186751,2.21884867739023e-06,24.1535865447798
-13.2533409533202,9.61781229094641,3.61814016933064e-06,27.6124792415249
-13.1686304649492,11.2425350110623,5.8732638130756e-06,31.5400057566532
-13.0839199765782,13.1274635313113,9.49095792307934e-06,35.9957084455407
-12.9992094882072,15.3117916893328,1.5267819096507e-05,41.0461354650132
-12.9144989998362,17.8402043021204,2.44500854458155e-05,46.7655895999777
-12.8297885114652,20.7635809220157,3.89780559904228e-05,53.2369474452595
-12.7450780230941,24.1397798947502,6.1858073072849e-05,60.5525543710141
-12.6603675347231,28.0345104617327,9.77257512402822e-05,68.815200980919
-12.5756570463521,32.5223011999351,0.000153694407917952,78.1391870527582
-12.4909465579811,37.6875736564745,0.000240626543725775,88.651479230916
-12.4062360696101,43.6258306074726,0.000375029488957054,100.492969022571
-12.321525581239,50.4449689473603,0.000581866992018409,113.819837943632
-12.236815092868,58.2667277901091,0.000898707658965402,128.805036991433
-12.152104604497,67.2282829316557,0.00138181398119853,145.639888045895
-12.067394116126,77.4839993759463,0.00211503296403592,164.535815443918
-11.982683627755,89.2073541575778,0.00322270918355937,185.726217095316
-11.897973139384,102.593042193316,0.00488834119490404,209.468486649795
-11.8132626510129,117.859278353963,0.00738139291513471,236.046202454902
-11.7285521626419,135.250309359863,0.0110956194830826,265.771507455846
-11.6438416742709,155.039149466589,0.0166035595269132,298.987720766496
-11.5591311858999,177.530554239498,0.0247335964607918,336.072253817627
-11.4744206975289,203.064247085785,0.0366783471200394,377.439965295316
-11.3897102091578,232.018413823055,0.0541462843994242,423.547203581264
-11.3049997207868,264.813481953185,0.0795726793915713,474.896994846415
-11.2202892324158,301.916204834636,0.116411456270107,532.046209937083
-11.1355787440448,343.844079878308,0.169536760548474,595.616199987627
-11.0508682556738,391.170151865595,0.245792403943323,666.30951537603
-10.9661577673027,444.528304728021,0.354739420319021,744.937204164744
-10.8814472789317,504.61926523914,0.509667411143066,832.464258764931
-10.7967367905607,572.217809429549,0.728954961681401,930.085672556113
-10.7120263021897,648.182239003018,1.0378890877975,1039.35315706033
-10.6273158138187,733.468398983395,1.47108447974494,1162.38401583454
-10.5426053254477,829.152942313044,2.07568142819884,1302.20042431684
-10.4578948370766,936.475309639858,2.91554805332567,1463.27110158929
-10.3731843487056,1056.91689638126,4.07676920861418,1652.35980064031
-10.2884738603346,1192.3523069534,5.67477264777897,1879.82759782977
-10.2037633719636,1345.33647068583,7.86352416321988,2161.58914333077
-10.1190528835926,1519.64017386239,10.8473187640415,2521.98560268056
-10.0343423952215,1721.22552740308,14.89580567421,2997.90485690175
-9.94963190685053,1959.97487260486,20.3630117346763,3644.5443248587
-9.86492141847951,2252.66538486295,27.7112708578117,4543.2597210911
-9.78021093010849,2627.92791953062,37.5411258824301,5811.95391353689
-9.69550044173747,3134.2429822886,50.6284418239223,7618.40699857042
-9.61078995336645,3852.38826970188,67.9701530541353,10196.7997786792
-9.52607946499543,4914.10424880615,90.8402566383646,13867.4042922494
-9.44136897662441,6528.97846601975,120.857853134367,19058.9774866556
-9.3566584882534,9021.49474991518,160.069215494894,26332.7811303158
-9.27194799988238,12879.6183032468,211.046024526539,36406.3700381667
-9.18723751151136,18814.9244648852,277.002030962547,50174.3843866874
-9.10252702314034,27831.8840427101,361.930471889356,68722.6381974962
-9.01781653476932,41300.3692665704,470.764562278281,93330.952811706
-8.9331060463983,61020.8684772252,609.563277130918,125459.625403863
-8.84839555802729,89266.8029094289,785.724410260076,166714.362987048
-8.76368506965627,128783.705213486,1008.22651432355,218785.168203494
-8.67897458128525,182722.286036815,1287.90076509059,283356.210601927
-8.59426409291423,254483.307829359,1637.73302350127,361986.242120141
-8.50955360454321,347458.351137283,2073.19536686889,455962.564114356
-8.42484311617219,464663.034100263,2612.60510525283,566135.692753248
-8.34013262780118,608277.857295686,3277.50777742981,692746.273635336
-8.25542213943016,779134.721547262,4093.07882974215,835259.865550376
-8.17071165105914,976210.571414002,5088.53662990496,992228.236285146
-8.08600116268812,1196208.30555646,6297.5571817798,1161197.06915695
-8.0012906743171,1433313.25327233,7758.67842970694,1338678.8664584
-7.91658018594608,1679206.19733445,9515.67943643351,1520206.01174168
-7.83186969757506,1923388.66082047,11617.9170734757,1700472.44837917
-7.74715920920405,2153834.31021976,14120.6002863871,1873563.72149847
-7.66244872083303,2357927.5443057,17084.9796218124,2033265.12584079
-7.57773823246201,2523596.06639631,20578.4276808048,2173427.66119968
-7.49302774409099,2640499.85426426,24674.3846628879,2288362.85281664
-7.40831725571997,2701115.12553227,29452.1423682812,2373231.62707333
-7.32360676734896,2701555.79620636,34996.4401160066,2424390.4271403
-7.23889627897794,2642007.98240542,41396.8471924438,2439660.18331596
-7.15418579060692,2526710.20321968,48746.9088313687,2418490.54690046
-7.0694753022359,2363482.36890841,57143.0364775753,2362002.21028459
-6.98476481386488,2162876.45076225,66683.1282958579,2272902.84781123
-6.90005432549386,1937077.14270448,77464.912595738,2155285.52632503
-6.81534383712284,1698711.50606673,89584.0150242448,2014330.5567545
-6.73063334875183,1459727.98607253,103131.759932482,1855941.08939807
-6.64592286038081,1230479.27822464,118192.727060579,1686348.14837389
-6.56121237200979,1019097.85392003,134842.096335588,1511721.72975134
-6.47650188363877,831198.378076992,153142.825775194,1337821.20523857
-6.39179139526775,669889.073947727,173142.719791177,1169711.34266572
-6.30708090689673,536033.475896245,194871.457072582,1011560.98481945
-6.22237041852572,428680.281893499,218337.658126517,866531.244704627
-6.1376599301547,345573.155469943,243526.081858214,736750.37590146
-6.05294944178368,283661.595814814,270395.047669577,623364.419415333
-5.96823895341266,239553.310960592,298874.183860971,526647.085300499
-5.88352846504164,209872.076596292,328862.604107673,446149.422072038
-5.79881797667062,191507.695814166,360227.611018519,380869.555741396
-5.7141074882996,181762.811492234,392804.018965729,329424.69942023
-5.62939699992859,178413.247938187,426394.177356155,290211.087403209
-5.54468651155757,179704.223296813,460768.760332533,261541.74330397
-5.45997602318655,184305.29043607,495668.36978558,241756.366741989
-5.37526553481553,191243.904162332,530805.975967789,229301.570595654
-5.29055504644451,199832.789567873,565870.194574316,222782.85870296
-5.20584455807349,209601.204506478,600529.371730051,220991.931886105
-5.12113406970248,220235.687000447,634436.419889473,222914.145987232
-5.03642358133146,231532.427154879,667234.319334143,227721.340990378
-4.95171309296044,243361.103259938,698562.172931851,234755.010014492
-4.86700260458942,255638.735911777,728061.677310189,243504.100796051
-4.7822921162184,268311.593271555,755383.852761825,253580.847284399
-4.69758162784738,281343.158850035,780195.85810139,264697.084913042
-4.61287113947637,294706.423157595,802187.706233768,276642.631126067
-4.52816065110535,308379.116763301,821078.692053088,289266.58484321
-4.44345016273433,322340.861423788,836623.346892637,302461.844502898
-4.35873967436331,336571.524881763,848616.74321761,316152.762332306
-4.27402918599229,351050.305209744,856898.989415637,330285.620699847
-4.18931869762127,365755.243961031,861358.776905435,344821.503121108
-4.10460820925026,380662.98512293,861935.869569846,359731.104035666
-4.01989772087924,395748.672739112,858622.457683917,374991.047319815
-3.93518723250822,410985.926733027,851463.333796803,390581.338961612
-3.8504767441372,426346.863960293,840554.885030398,406483.646357129
-3.76576625576618,441802.147076524,826042.933485525,422680.163444454
-3.68105576739516,457321.052271359,808119.492394951,439152.88060976
-3.59634527902414,472871.551343895,787018.538891273,455883.127956121
-3.51163479065313,488420.405808374,763010.933460093,472851.299576727
-3.42692430228211,503933.27176721,736398.640214166,490036.695812557
-3.34221381391109,519374.814744143,707508.420189451,507417.441665994
-3.25750332554007,534708.833835467,676685.18135086,524970.45432159
-3.17279283716905,549898.394565131,644285.173632281,542671.442707934
-3.08808234879803,564905.969795768,610669.21516086,560494.928577643
-3.00337186042701,579693.587988295,576196.127167626,578414.282749361
-2.918661372056,594222.988034831,541216.540574329,596401.772734735
-2.83395088368498,608455.779821158,506067.217710135,614428.61952364
-2.74924039531396,622353.609609769,471066.009071493,632465.062203258
-2.66452990694294,635878.329274778,436507.538635909,650480.429591934
-2.57981941857192,648992.168366831,402659.683177988,668443.218336801
-2.49510893020091,661657.907940637,369760.882515682,686321.177054257
-2.41039844182989,673839.055040459,338018.289780289,704081.396144198
-2.32568795345887,685500.016710482,307606.744690621,721690.402917629
-2.24097746508785,696606.272377901,278668.52930547,739114.261663278
-2.15626697671683,707124.543447205,251313.84553347,756318.678253394
-2.07155648834581,717022.958944746,225621.937300705,773269.108858598
-1.98684599997479,726271.216063465,201642.768011668,789930.872309919
-1.90213551160378,734840.734478652,179399.155883634,806269.265615009
-1.81742502323276,742704.803336827,158889.265794442,822249.682106197
-1.73271453486174,749838.719860996,140089.356199086,837837.73167118
-1.64800404649072,756219.918566542,122956.683044063,852999.362493269
-1.5632935581197,761828.090142323,107432.468937897,867700.98370758
-1.47858306974868,766645.289120754,93444.8545496732,881909.588362576
-1.39387258137767,770656.029538205,80911.7596970069,895592.876063309
-1.30916209300665,773847.367872128,69743.5932399149,908719.374663556
-1.22445160463563,776208.972633344,59845.7631319802,921258.560369096
-1.13974111626461,777733.180089834,51120.9502589205,933180.975613721
-1.05503062789359,778415.035701436,43471.1215487849,944458.344073183
-0.970320139522575,778252.320951912,36799.2688794217,955063.682190323
-0.885609651151557,777245.565375046,31010.8702368204,964971.406597017
-0.800899162780537,775398.043683519,26015.0781804649,974157.436835334
-0.716188674409519,772715.758022346,21725.647822859,982599.292801294
-0.631478186038501,769207.405481493,18061.6221826875,990276.186359764
-0.546767697667482,764884.331113734,14947.7969466563,997169.106608241
-0.462057209296464,759760.466812956,12314.9894533299,1003260.89830022
-0.377346720925446,753852.25651375,10100.1382174498,1008536.33297546
-0.292636232554428,747178.568274296,8246.25970133176,1012982.17238449
-0.207925744183408,739760.593900348,6702.28848658589,1016587.22383757
-0.12321525581239,731621.736857491,5422.82568851074,1019342.38715432
-0.0385047674413725,722787.4893012,4367.81856960848,1021240.69293838
0.0462057209296453,713285.299128558,3502.19202098486,1022277.33195174
0.130916209300665,703144.428021406,2795.45004878284,1022449.67541553
0.215626697671685,692395.801507436,2221.26276554708,1021757.28611725
0.300337186042701,681071.852112991,1757.05175977137,1020201.92025885
0.385047674413721,669206.356718725,1383.58419412614,1017787.52003467
0.469758162784736,656834.26925654,1084.58363467094,1014520.19698312
0.554468651155756,643991.549903287,846.363489171195,1010408.20621059
0.639179139526776,630714.991933575,657.487062805528,1005461.91163964
0.723889627897792,617042.047390784,508.456637913035,999693.742486272
0.808600116268812,603010.652722205,391.432651199921,993118.141222183
0.893310604639832,588659.055501532,299.982966472507,985751.503326693
0.978021093010848,574025.643329989,228.86140501601,977612.10918032
1.06273158138187,559148.775966845,173.814075337456,968720.048495777
1.14744206975289,544066.621691403,131.411612137055,959097.137723592
1.2321525581239,528816.99884245,98.9051628145,948766.830907446
1.31686304649492,513437.223418411,74.1038205663658,937754.124498802
1.40157353486594,497963.963552698,55.271169610471,926085.456671132
1.48628402323696,482433.101604919,41.0386559291521,913788.601700794
1.57099451160798,466879.604530548,30.333604537791,900892.560004332
1.65570499997899,451337.403110124,22.3198530350611,887427.444440381
1.74041548835001,435839.280535085,16.349145505859,873424.36349853
1.82512597672103,420416.77076174,11.9216181052554,858915.302007252
1.90983646509205,405100.066958457,8.65389796777849,843932.999998394
1.99454695346307,389917.940284944,6.25352302831579,828510.830366761
2.07925744183409,374897.669157116,4.49856660250162,812682.67596007
2.16396793020511,360064.979067415,3.22151363767114,796482.806727048
2.24867841857613,345443.992949286,2.29658334991776,779945.757539938
2.33338890694715,331057.19199645,1.62982459704877,763106.207292197
2.41809939531816,316925.386773343,1.15142576156717,745998.859852965
2.50280988368918,303067.698383126,0.809780723481878,728658.32743721
2.5875203720602,289501.549394555,0.5669377097185,711119.016924473
2.67223086043122,276242.664169105,0.395129699111093,693415.019630153
2.75694134880224,263305.078175451,0.274145057696675,675580.005001608
2.84165183717325,250701.155830005,0.189346632676147,657647.118677222
2.92636232554427,238441.616359847,0.130188064245015,639648.885310363
3.01107281391529,226535.567148287,0.0891089181993915,621617.116522193
3.09578330228631,214990.543993376,0.0607166205805516,603582.824307804
3.18049379065733,203812.55768608,0.0411841805702971,585576.140179616
3.26520427902835,193006.146297391,0.0278092762162954,567626.240290607
3.34991476739936,182574.432552184,0.0186932735091784,549761.27673816
3.43462525577038,172519.185662079,0.0125088519728083,532008.315207354
3.5193357441414,162840.886989563,0.00833270418148343,514393.279070843
3.60404623251242,153538.798920913,0.00552574568894143,496940.900021169
3.68875672088344,144611.036335754,0.0036478102643349,479674.675270979
3.77346720925445,136054.640075909,0.00239723167111049,462616.831317178
3.85817769762547,127865.651835289,0.00156828211862214,445788.294227053
3.94288818599649,120039.1899154,0.00102135046951747,429208.666367915
4.02759867436751,112569.525317213,0.000662158278769017,412896.209467105
4.11230916273853,105450.157669264,0.00042735151892045,396867.833856516
4.19701965110955,98673.8905233763,0.00027456495809974,381139.093725256
4.28173013948057,92232.9055829368,0.000175606822149563,365724.188175793
4.36644062785159,86118.835463817,0.000111808308455237,350635.967853147
4.4511511162226,80322.834624245,7.08668597275657e-05,335885.946893406
4.53586160459362,74835.6481369323,4.4714534958005e-05,321484.319917151
4.62057209296464,69647.6780140673,2.80860501062223e-05,307439.983775353
4.70528258133566,64749.0468330362,1.75618002240848e-05,293760.563739965
4.78999306970668,60129.6584476029,1.09316021376486e-05,280452.443818764
4.8747035580777,55779.2556054321,6.7738413297194e-06,267520.800863987
4.95941404644871,51687.4743279768,4.17852149296297e-06,254969.642136929
5.04412453481973,47843.8949426345,2.56594107833944e-06,242801.84598585
5.12883502319075,44238.0896894602,1.56858167395835e-06,231019.205292205
5.21354551156177,40859.6668554093,9.54561715725992e-07,219622.473340234
5.29825599993279,37698.3114179226,5.78278846463896e-07,208611.411767301
5.38296648830381,34743.8222065065,3.48744219637687e-07,197984.840256819
