tau,gamma,gamma_lo,gamma_hi
-18.4206807439524,2.38847297294355e-05,1.84085274716481e-15,0.000856113491216066
-18.3359702555813,3.04037067333577e-05,3.01763911756759e-15,0.00103019869345018
-18.2512597672103,3.86548921416615e-05,4.93391670799502e-15,0.00123868121476371
-18.1665492788393,4.9085602306496e-05,8.04623270123858e-15,0.00148815103519571
-18.0818387904683,6.22551824939735e-05,1.30878896667443e-14,0.00178641918074982
-17.9971283020973,7.88621520528109e-05,2.12335653846201e-14,0.00214273586198796
-17.9124178137263,9.97776946870639e-05,3.43599469360798e-14,0.002568046044523
-17.8277073253552,0.000126086919519458,5.54572470545552e-14,0.00307528859164385
-17.7429968369842,0.00015913962519026,8.92771651584309e-14,0.00367974607618054
-17.6582863486132,0.000200612668515156,1.43350343519869e-13,0.00439945345605684
-17.5735758602422,0.000252586483340053,2.29579627254908e-13,0.00525567506497155
-17.4888653718712,0.000317638828482215,3.66728123969061e-13,0.00627346080787601
-17.4041548835001,0.000398959482884975,5.84293895680613e-13,0.00748229409461359
-17.3194443951291,0.000500490371149933,9.28527441634652e-13,0.00891684592143541
-17.2347339067581,0.000627096516698049,1.47175120338317e-12,0.0106178516495442
-17.1500234183871,0.000784774310184393,2.32675318861695e-12,0.0126331294663747
-17.0653129300161,0.000980904879286816,3.66895595230671e-12,0.0150187622869863
-16.9806024416451,0.00122456188974825,5.77046671010945e-12,0.0178404680020785
-16.895891953274,0.00152688493981593,9.05223133203635e-12,0.0211751865528638
-16.811181464903,0.00190153188123018,1.41636964273538e-11,0.0251129163637389
-16.726470976532,0.00236522596791632,2.210415095321e-11,0.029758837249453
-16.641760488161,0.00293841676592257,3.44070412121809e-11,0.0352357620986813
-16.55704999979,0.00364607733272289,5.34191630582635e-11,0.0416869654916608
-16.4723395114189,0.00451866438039703,8.27223937563881e-11,0.0492794440144274
-16.3876290230479,0.00559327307842994,1.27768962685043e-10,0.0582076704727177
-16.3029185346769,0.00691502394608156,1.9683571701161e-10,0.0686979125799246
-16.2182080463059,0.00853872606665774,3.02453563809225e-10,0.0810131961002098
-16.1334975579349,0.0105308687808706,4.63542723095522e-10,0.0954590029843404
-16.0487870695639,0.0129720032595701,7.08593380933255e-10,0.112389806867508
-15.9640765811928,0.0159595861170988,1.08039030081147e-09,0.132216561541791
-15.8793660928218,0.0196113697316454,1.64301120050802e-09,0.15541527282022
-15.7946556044508,0.0240694384440053,2.49216408710127e-09,0.182536800736406
-15.7099451160798,0.0295050065994671,3.77041369922952e-09,0.214218057449139
-15.6252346277088,0.0361241138033904,5.68954632616278e-09,0.251194786735444
-15.5405241393377,0.0441743751430341,8.56332709438462e-09,0.294316133763713
-15.4558136509667,0.0539529698929606,1.28553436366824e-08,0.344561239161961
-15.3711031625957,0.065816081822249,1.924868694685e-08,0.403058119472955
-15.2863926742247,0.0801900381628219,2.87471496899713e-08,0.471105127172984
-15.2016821858537,0.0975844331379957,4.28217817224574e-08,0.550195317796848
-15.1169716974826,0.11860756630596,6.36225304624839e-08,0.642044089649498
-15.0322612091116,0.143984576523649,9.42830026680452e-08,0.748620503403258
-14.9475507207406,0.174578709827856,1.39358073526236e-07,0.872182734906859
-14.8628402323696,0.211416224777269,2.05450463247306e-07,1.0153181651145
-14.7781297439986,0.255715512688973,3.02105323071755e-07,1.18098866654466
-14.6934192556276,0.308921093698382,4.43083820997888e-07,1.37258170648129
-14.6087087672565,0.372743243712229,6.48171108427136e-07,1.59396795363469
-14.5239982788855,0.449204113228145,9.45735534950552e-07,1.84956614760019
-14.4392877905145,0.540691317857575,1.37634087537933e-06,2.14441606962236
-14.3545773021435,0.650020113484422,1.99783018466888e-06,2.484260539332
-14.2698668137725,0.780505417668055,2.89246022061864e-06,2.87563745572952
-14.1851563254014,0.936045104573523,4.17688464469997e-06,3.325983002204
-14.1004458370304,1.12121618486589,6.01608314274356e-06,3.84374724526989
-14.0157353486594,1.34138568617609,8.64273983265251e-06,4.43852347544511
-13.9310248602884,1.60283827551259,1.23841245770008e-05,5.12119276675146
-13.8463143719174,1.91292291396594,1.76992737440028e-05,5.90408536915214
-13.7616038835464,2.2802211078534,2.52302667633634e-05,6.80116069630004
-13.6768933951753,2.71473962068772,3.58727359221703e-05,7.82820782968076
-13.5921829068043,3.22813083860584,5.08725398312093e-05,9.00306863000132
-13.5074724184333,3.83394433966724,7.19579202034907e-05,10.3458857278653
-13.4227619300623,4.54791360613983,0.000101519634704529,11.8793778587135
-13.3380514416913,5.38828223980269,0.000142855758766737,13.6291452119719
-13.2533409533202,6.37617449449532,0.000200503390107582,15.6240076815461
-13.1686304649492,7.53601542847847,0.000280686774469265,17.896379134371
-13.0839199765782,8.89600650220266,0.000391920916049131,20.4826810557451
-12.9992094882072,10.4886630049993,0.000545822199534827,23.4237991846065
-12.9144989998362,12.3514202867991,0.000758193768711443,26.7655870187047
-12.8297885114652,14.5273163975142,0.00105047443685058,30.559420348672
-12.7450780230941,17.0657593958861,0.00145166707867507,34.8628072714002
-12.6603675347231,20.0233882794455,0.00200089744354104,39.7400584374409
-12.5756570463521,23.4650372050014,0.00275079922143537,45.2630226062893
-12.4909465579811,27.4648134112232,0.00377197858235067,51.5118929223843
-12.4062360696101,32.1073000168491,0.00515888450783196,58.5760896954064
-12.321525581239,37.4888956442902,0.00703750399939117,66.555225897782
-12.236815092868,43.7193036021743,0.00957541853722167,75.5601621380564
-12.152104604497,50.9231841437807,0.0129949059009494,85.7141586523317
-12.067394116126,59.2419840922258,0.0175899568514773,97.1541331251578
-11.982683627755,68.8359588775147,0.0237483079109032,110.032035401549
-11.897973139384,79.8864027547467,0.0319798800288254,124.516354351575
-11.8132626510129,92.598103658082,0.0429533708014108,140.793780151313
-11.7285521626419,107.202039790216,0.057543189997598,159.071060519521
-11.6438416742709,123.958335672506,0.0768894720450916,179.577118358938
-11.5591311858999,143.159496065113,0.102474565526847,202.565552195668
-11.4744206975289,165.133937134405,0.136220212805614,228.317739764992
-11.3897102091578,190.249836074666,0.180610620678925,257.146943237866
-11.3049997207868,218.919324487519,0.238847817797675,289.404128990335
-11.2202892324158,251.603060462313,0.315047133449337,325.486758358514
-11.1355787440448,288.815236869649,0.414482357230113,365.852725569978
-11.0508682556738,331.129134998104,0.543892197543084,411.043141256786
-10.9661577673027,379.18344741477,0.711862102311715,461.720121955765
-10.8814472789317,433.689841596233,0.929298399759524,518.729633606516
-10.7967367905607,495.442754685227,1.21001514018999,583.205423237779
-10.7120263021897,565.333464231242,1.57145810514691,656.739048681518
-10.6273158138187,644.372558375008,2.03559552355483,741.65409719129
-10.5426053254477,733.728899514001,2.63001210443094,841.441170476606
-10.4578948370766,834.800518232129,3.38925542432913,961.435468681155
-10.3731843487056,949.346003004828,4.35651258047201,1109.85201149242
-10.2884738603346,1079.72760948632,5.58577551442942,1299.33528605233
-10.2037633719636,1229.35497900168,7.14489194242615,1549.22981383312
-10.1190528835926,1403.47849658044,9.12060111733402,1888.83319169535
-10.0343423952215,1610.57320421601,11.6286516533866,2361.94803465917
-9.94963190685053,1864.68780106167,14.8375315955506,3033.09441160971
-9.86492141847951,2189.31672126732,19.0283908520465,3995.76550751278
-9.78021093010849,2623.58808119084,24.7481837693925,5383.08693594729
-9.69550044173747,3231.83399140238,33.192909623571,7381.15041889182
-9.61078995336645,4117.88623800571,47.1322653327415,10245.1089822259
-9.52607946499543,5445.64916009319,73.0446965616533,14317.8181909685
-9.44136897662441,7467.52916073318,125.816391658169,20050.3681252439
-9.3566584882534,10561.9887302225,238.570927569006,28023.270268746
-9.27194799988238,15280.6523479591,482.162096893837,38966.3620065441
-9.18723751151136,22403.8340880352,1001.71202241647,53774.7202911195
-9.10252702314034,33000.954588135,2081.11026413006,73517.1238241364
-9.01781653476932,48489.0829861732,4249.70579210966,99432.9964828667
-8.9331060463983,70679.0269346581,8446.49867017017,132913.461633481
-8.84839555802729,101794.562736917,16252.5997012844,175462.310335417
-8.76368506965627,144447.448991514,30188.2434353028,228633.497872014
-8.67897458128525,201549.97652517,54042.4137126378,293943.348290914
-8.59426409291423,276149.239042278,93160.71868921,372757.997022067
-8.50955360454321,371174.104227228,154567.061505666,466159.648409294
-8.42484311617219,489097.445248202,246753.230211887,574798.735319063
-8.34013262780118,631531.964324224,378963.341818342,698742.661642823
-8.25542213943016,798796.032470603,559855.384187568,837334.982375642
-8.17071165105914,989503.24261168,795557.828900421,989081.059512434
-8.08600116268812,1200241.79843901,1087346.84355666,1151576.87067848
-8.0012906743171,1425413.29015801,1429402.3230819,1321496.30370665
-7.91658018594608,1657291.61782555,1807276.64139976,1494648.72620341
-7.83186969757506,1886340.60335284,2197734.07248428,1666112.95867161
-7.74715920920405,2101794.79689258,2570424.14232615,1830446.43191282
-7.66244872083303,2292466.7920876,2891441.11699209,1981960.03395427
-7.57773823246201,2447703.16231535,3128287.86017251,2115040.96189583
-7.49302774409099,2558378.21060653,3255273.02809309,2224498.92160492
-7.40831725571997,2617797.67642454,3258110.62739438,2305906.33929613
-7.32360676734896,2622388.32195565,3136584.86156771,2355901.70061642
-7.23889627897794,2572074.81035163,2904593.76689087,2372427.15379757
-7.15418579060692,2470288.76819126,2587560.26741395,2354877.04375394
-7.0694753022359,2323608.69054786,2217878.17415704,2304142.50546099
-6.98476481386488,2141083.36545224,1829521.02342945,2222547.61153609
-6.90005432549386,1933335.67363244,1453047.55443078,2113683.5177907
-6.81534383712284,1711570.09815759,1111987.50952887,1982157.16722562
-6.73063334875183,1486612.12121185,821106.724629498,1833279.11380296
-6.64592286038081,1268091.55441996,586515.075214322,1672719.95746095
-6.56121237200979,1063849.5346725,407163.974512826,1506166.25316121
-6.47650188363877,879607.922027306,277078.079154393,1339004.60256676
-6.39179139526775,718898.465037082,187683.734227106,1176057.47682727
-6.30708090689673,583214.588160807,129768.988157306,1021387.04547003
-6.22237041852572,472325.804923895,94842.3007877374,878174.999365577
-6.1376599301547,384685.330209148,75866.3511221194,748678.177697641
-6.05294944178368,317864.366625062,67481.6711968212,634252.716129491
-5.96823895341266,268958.623531464,65892.5143327802,535434.130299367
-5.88352846504164,234929.763667055,68581.7401138556,452057.601860965
-5.79881797667062,212862.606625536,73980.7311403596,383401.769034242
-5.7141074882996,200134.855744487,81170.2354447849,328340.275754405
-5.62939699992859,194507.920466515,89645.2174380594,285487.736809906
-5.54468651155757,194154.429298525,99148.1048790565,253330.066311023
-5.45997602318655,197640.650001031,109559.95124688,230332.729562224
-5.37526553481553,203881.274611494,120834.249112957,215023.92962221
-5.29055504644451,212081.148868658,132959.087013557,206052.674747564
-5.20584455807349,221674.713789693,145936.626540488,202223.885444648
-5.12113406970248,232270.098143448,159772.422831687,202514.124960267
-5.03642358133146,243601.532542644,174469.989554902,206072.223964882
-4.95171309296044,255491.311827976,190028.003132033,212209.145676684
-4.86700260458942,267820.936267249,206438.775318464,220381.067724214
-4.7822921162184,280510.191078636,223687.321716351,230169.013535687
-4.69758162784738,293502.591193757,241750.719611294,241257.60222267
-4.61287113947637,306755.633339761,260597.627216096,253414.721895575
-4.52816065110535,320234.500516434,280187.918135516,266473.248784161
-4.44345016273433,333908.139055988,300472.419796623,280315.378550441
-4.35873967436331,347746.903276518,321392.758286598,294859.721728502
-4.27402918599229,361721.199765072,342881.31657692,310051.035560031
-4.18931869762127,375800.749212537,364861.313816569,325852.299700002
-4.10460820925026,389954.219487351,387247.012459956,342238.76755571
-4.01989772087924,404149.07720127,409944.058334734,359193.612159429
-3.93518723250822,418351.566358899,432849.956693771,376704.812224745
-3.8504767441372,432526.761133368,455854.684979972,394762.971875721
-3.76576625576618,446638.662938245,478841.440541977,413359.823060223
-3.68105576739516,460650.325342055,501687.518934653,432487.214132608
-3.59634527902414,474523.997816199,524265.315779959,452136.436581217
-3.51163479065313,488221.283289543,546443.442512756,472297.782232548
-3.42692430228211,501703.306521931,568087.943756106,492960.255181635
-3.34221381391109,514930.891297517,589063.601626366,514111.386948385
-3.25750332554007,527864.744881521,609235.310024327,535737.121227633
-3.17279283716905,540465.648356423,628469.499986557,557821.747514431
-3.08808234879803,552694.651503136,646635.59550869,580347.872202881
-3.00337186042701,564513.270900767,663607.477961045,603296.422662694
-2.918661372056,575883.68993922,679264.936340462,626646.685281865
-2.83395088368498,586768.959528096,693495.080174749,650376.383334033
-2.74924039531396,597133.198531036,706193.691941313,674461.805443876
-2.66452990694294,606941.793522226,717266.496391431,698878.000927553
-2.57981941857192,616161.598668155,726630.325185612,723599.064831509
-2.49510893020091,624761.138980353,734214.15673085,748598.54345443
-2.41039844182989,632710.824952606,739960.013041456,773850.000793835
-2.32568795345887,639983.195602207,743823.697784238,799327.797864525
-2.24097746508785,646553.223406323,745775.362367047,825008.15016251
-2.15626697671683,652398.743767126,745799.889928582,850870.543404842
-2.07155648834581,657501.121438092,743897.090319602,876899.603413339
-1.98684599997479,661846.34835029,740081.702557689,903087.53150902
-1.90213551160378,665426.897043935,734383.204711227,929437.230344416
-1.81742502323276,668244.850459691,726845.434642841,955966.25434924
-1.73271453486174,670317.112243554,717526.02843756,982711.720801649
-1.64800404649072,671683.88755133,706495.686578249,1009736.308153
-1.5632935581197,672422.113820857,693837.280936501,1037135.44323033
-1.47858306974868,672666.085953615,679644.818353864,1065045.73358433
-1.39387258137767,672638.083665992,664022.278937111,1093654.63089236
-1.30916209300665,672692.223012974,647082.349133067,1123211.21199862
-1.22445160463563,673374.784960379,628945.071145523,1154037.83336029
-1.13974111626461,675503.598610604,609736.43128299,1186542.2522194
-1.05503062789359,680267.290741293,589586.910368273,1221229.61693065
-0.970320139522575,689341.978928212,568630.019398236,1258713.51703681
-0.885609651151557,705018.030069362,547000.84322646,1299725.0634477
-0.800899162780537,730322.865642612,524834.614175959,1345118.75846392
-0.716188674409519,769117.977772811,502265.33620786,1395873.73773746
-0.631478186038501,826140.46053674,479424.478618333,1453088.84939106
-0.546767697667482,906953.272446023,456439.756261406,1517970.00998634
-0.462057209296464,1017766.4951191,433434.011057163,1591808.37352707
-0.377346720925446,1165096.59333683,410524.207104831,1675948.09556342
-0.292636232554428,1355244.24043858,387820.549142942,1771742.88964427
-0.207925744183408,1593594.56540238,365425.731448524,1880501.16595898
-0.12321525581239,1883775.61802924,343434.321608016,2003420.30416958
-0.0385047674413725,2226747.80860668,321932.280984535,2141511.51704587
0.0462057209296453,2619932.86809802,300996.621205577,2295517.76038968
0.130916209300665,3056517.44854174,280695.193652301,2465828.16890005
0.215626697671685,3525075.41542932,261086.606789795,2652393.46020829
0.300337186042701,4009637.4174556,242220.264272882,2854647.55117363
0.385047674413721,4490293.54249271,224136.515121808,3071441.16861352
0.469758162784736,4944347.40687559,206866.905905808,3300993.41441047
0.554468651155756,5347956.6268016,190434.523810985,3540866.98403125
0.639179139526776,5678109.22350525,174854.418705026,3787971.98934735
0.723889627897792,5914714.75641155,160134.091840156,4038602.09254389
0.808600116268812,6042548.5996995,146274.0386459,4288504.95598647
0.893310604639832,6052788.75534982,133268.333136752,4532986.94076477
0.978021093010848,5943930.06953454,121105.24177406,4767049.67850328
1.06273158138187,5721944.63042855,109767.855149324,4985553.7693591
1.14744206975289,5399665.08226674,99234.7265678118,5183402.62068833
1.2321525581239,4995479.85258055,89480.5074749423,5355737.53868199
1.31686304649492,4531525.14983723,80476.5706506729,5498133.80809804
1.40157353486594,4031621.00907764,72191.6131662554,5606786.79684535
1.48628402323696,3519217.9473693,64592.2322215304,5678677.20313052
1.57099451160798,3015596.36559252,57643.4681293137,5711705.45682967
1.65570499997899,2538500.76707191,51309.309858616,5704786.95362082
1.74041548835001,2101309.39732272,45553.1596656302,5657902.12733406
1.82512597672103,1712753.7862764,40338.2544089492,5572098.17630087
1.90983646509205,1377127.31419055,35628.0421451974,5449442.32906579
1.99454695346307,1094868.3982094,31386.5135186552,5292929.6138025
2.07925744183409,863377.34349577,27578.4882825511,5106350.93335354
2.16396793020511,677925.515932057,24169.858013037,4894129.61714871
2.24867841857613,532535.835764488,21127.7866953121,4661136.34156112
2.33338890694715,420746.651996368,18420.8713737527,4412493.2635459
2.41809939531816,336208.416948042,16019.2654658287,4153378.35309032
2.50280988368918,273097.160821094,13894.7676469337,3888840.26645783
2.5875203720602,226355.857629302,12020.8794258783,3623632.77040897
2.67223086043122,191792.294213824,10372.8346560789,3362075.85797475
2.75694134880224,166070.188564917,8927.60427399083,3107948.47580557
2.84165183717325,146630.784652543,7663.87953339727,2864415.41430886
2.92636232554427,131577.444588036,6562.036921556,2633988.59262008
3.01107281391529,119548.366838442,5604.08781080216,2418520.87569049
3.09578330228631,109594.548605287,4773.6157267275,2219228.82785645
3.18049379065733,101072.895155816,4055.70391084218,2036739.52737308
3.26520427902835,93558.7081664387,3436.85563041545,1871155.78131389
3.34991476739936,86777.8660079362,2904.90944900254,1722133.78450966
3.43462525577038,80556.6849165469,2448.95142518342,1588967.41388679
3.5193357441414,74786.3773383616,2059.22596054018,1470673.86412254
3.60404623251242,69398.8096147693,1727.0467762373,1366076.11635961
3.68875672088344,64350.5522774272,1444.70926516478,1273878.68585975
3.77346720925445,59612.7410244055,1205.4052469734,1192734.11718924
3.85817769762547,55164.8434856788,1003.14094914276,1121298.69881081
3.94288818599649,50990.9528031516,832.658850350187,1058276.78237894
4.02759867436751,47077.6582475767,689.363854017583,1002453.86583766
4.11230916273853,43412.8669002186,569.25411054403,952719.204970919
4.19701965110955,39985.18003437,468.856676384861,908079.146184584
4.28173013948057,36783.5823661331,385.168086366932,867662.631073994
4.36644062785159,33797.3016951599,315.59982162827,830720.429949629
4.4511511162226,31015.7577415883,257.928578251651,796619.643907466
4.53586160459362,28428.5553763022,210.251179738085,764834.903811034
4.62057209296464,26025.4982946566,170.943928516001,734937.520370447
4.70528258133566,23796.6107389369,138.626156209096,706583.63044375
4.78999306970668,21732.161077663,112.127707873598,679502.164462819
4.8747035580777,19822.6842810793,90.4600803674461,653483.246923913
4.95941404644871,18059.0019687348,72.7909279887944,628367.449128324
5.04412453481973,16432.2395128515,58.4216481609012,604036.148653656
5.12883502319075,14933.8400709605,46.7677649873578,580403.116863127
5.21354551156177,13555.5756058477,37.3418378130071,557407.354180745
5.29825599993279,12289.5550369438,29.7386344804598,535007.120500512
5.38296648830381,11128.2297067795,23.6223238724436,513175.061068667
5.46767697667482,10064.3963635469,18.7154588015588,491894.301857572
5.55238746504584,9091.19786746943,14.7895376945648,471155.378094618
