tau,gamma,gamma_lo,gamma_hi
1e-07,8.813070750123682e-06,-2.9677245890995103e-05,7.307108953358602e-05
1.1097524964120721e-07,4.5074378361861647e-05,-0.00015176569064673283,0.0003728178667265806
1.2315506032928263e-07,0.00015559808653208313,-0.0005237253835189634,0.0012794961334611262
1.3667163564620074e-07,0.0003704858943153959,-0.001245754843477986,0.0030055240049285427
1.5167168884709241e-07,0.000637070646451962,-0.002134895258026097,0.005019869468938075
1.6831803533309585e-07,0.0008578771150535915,-0.0028420338477376738,0.0064070128824556425
1.867913599020781e-07,0.001002815348578955,-0.0032138341666271735,0.006929355081350839
2.0729217795953698e-07,0.0011058118426047496,-0.0033031152008067785,0.007004196737457808
2.300430119772917e-07,0.0011987686295843406,-0.003241773266100272,0.00701330110941084
2.5529080682395163e-07,0.0012898481396438457,-0.0031930506089338723,0.007091068969524383
2.833096101839324e-07,0.0013774280349128402,-0.0032336913963682723,0.007213362988581196
3.1440354715915e-07,0.0014631528736990048,-0.0033059703505123883,0.0072922622306288145
3.489101213406774e-07,0.0015457147840843956,-0.0033130498993210024,0.007258533199094
3.872038781812557e-07,0.0016220510192534725,-0.003223549348263608,0.00717557897287304
4.2970047043208437e-07,0.001687603320420509,-0.003060442655652058,0.0071460935456364874
4.768611697714474e-07,0.0017510438637698142,-0.0029103138668404743,0.007214224974236149
5.291978735958437e-07,0.001825547544543625,-0.0028714655602420573,0.007348513920678901
5.872786613189477e-07,0.0019151716935189547,-0.0029259381963807713,0.007463797723333054
6.517339604882421e-07,0.002014486959716223,-0.0029470384427811177,0.0074533959090647165
7.232633896483533e-07,0.0021256847654901575,-0.002862595403775909,0.007315250734015047
8.026433522257174e-07,0.002265794491338169,-0.0027157961077719133,0.00721034191927811
8.907354638610439e-07,0.0024440444361654404,-0.0025465851693642016,0.007263911701256757
9.884959046625586e-07,0.0026521285420354535,-0.0023373502344301218,0.007470621770100047
1.096985797892384e-06,0.0028743261025628427,-0.002067484991991598,0.007772297724957166
1.217382727739662e-06,0.003111420031254418,-0.0017985135787802577,0.008169241428163294
1.3509935211980278e-06,0.0033656215817754885,-0.0016124298499515487,0.008680714189077137
1.499268432786047e-06,0.0036369673941158928,-0.0014894854463438744,0.009303999574671288
1.6638168860761274e-06,0.003915899139095291,-0.0013358000300044818,0.009990134102992413
1.8464249428955464e-06,0.004200327150857664,-0.0011104942934203616,0.01068114079174266
2.049074689815846e-06,0.0044946614416565825,-0.0008548491301529276,0.011310888763593123
2.2739657523579273e-06,0.004803648741695471,-0.0006171099609502161,0.011843101209835156
2.523539170434766e-06,0.005134450675888113,-0.0004273497283208646,0.012304104455119709
2.800503894183631e-06,0.005483287670492066,-0.0002911779607995724,0.012705320119924344
3.107866187782014e-06,0.005845838592645359,-0.00018067578091214432,0.013057570638062566
3.4489622604057595e-06,0.006212732134263965,-3.574915309296292e-05,0.013372721092117644
3.827494478516315e-06,0.006603519777477613,0.00023719356919157665,0.013763917104626749
4.247571552536894e-06,0.007037455135675795,0.0007136591232301065,0.014345040056387173
4.713753134116729e-06,0.007523427369737454,0.0013279634959007685,0.015095853226308568
5.2310993080562585e-06,0.008050598004664265,0.0018992400040387942,0.015881827063821283
5.805225516094895e-06,0.008620533369243332,0.002345170135533234,0.016682323072601375
6.44236350872137e-06,0.009247814727976268,0.0027202031915918405,0.0176197505983976
7.149428986597577e-06,0.009927557639518352,0.0031056055041029447,0.018708667244717363
7.934096665797492e-06,0.010633940087322283,0.0035555697756251324,0.019769155368722608
8.804883581643465e-06,0.011330947196395578,0.004078458968740609,0.02063964073999791
9.771241535346501e-06,0.012030994859341147,0.0046271547066014,0.0214684132349245
1.0843659686896109e-05,0.012731776004705304,0.005119439067520625,0.022430115989991995
1.2033778407775906e-05,0.013418495201208323,0.005502235873719668,0.023474231454480392
1.3354515629298974e-05,0.01404859944446136,0.00575865958255136,0.024369593408049516
1.48202070579886e-05,0.014641317944557765,0.0059843455548842985,0.025068690426803826
1.6446761779946626e-05,0.015255361711296494,0.006351690871026812,0.02569183419122987
1.8251834943190462e-05,0.015911533530902827,0.006924761620353604,0.02629203790682623
2.0255019392306664e-05,0.016583609225836727,0.007605396876686896,0.02682510538194419
2.2478058335487252e-05,0.017234811654451163,0.008270833322486938,0.027267478907258245
2.4945081352303165e-05,0.0178950470587895,0.008858819610467071,0.02780532482924835
2.7682866303920665e-05,0.018580602381777337,0.00932097836819841,0.028619564742159296
3.072112998861759e-05,0.019320502161973858,0.009642753851708168,0.029820660162176073
3.409285069746814e-05,0.020109503078541736,0.009836241539472242,0.03138117727688624
3.783462617131933e-05,0.02097298493963375,0.010037236231408522,0.03318641186389634
4.1987070844439056e-05,0.021916734877124342,0.010433392998170924,0.03498887422050336
4.659525668664687e-05,0.02292821324121103,0.011085707259035873,0.03656005506457285
5.170920242896755e-05,0.02397187139693196,0.011904124125418497,0.037742799895678955
5.7384416483024044e-05,0.025053500253349164,0.012774990966664535,0.03870719605546414
6.368249944718586e-05,0.0262703742421094,0.013625414848717692,0.0400703598437515
7.067181273927492e-05,0.027666500109515886,0.014464849512005693,0.042124224641618704
7.842822061337681e-05,0.029226961274922147,0.015461384912951993,0.044448388239560814
8.703591361485166e-05,0.030874361306913577,0.016744254905127952,0.046441770829402096
9.658832241158708e-05,0.03263365057195871,0.01825963319709191,0.04818646283761652
0.00010718913192051276,0.03451612025198423,0.01982916283582105,0.0500596134649887
0.00011895340673703195,0.03654680034662748,0.021412715482912244,0.052333387664540716
0.0001320088400831418,0.03869607131814402,0.02308723973087684,0.055023972344952404
0.00014649713983072864,0.04096295032250165,0.025041378373419604,0.05800348355688652
0.0001625755666443795,0.04336068230704103,0.02747367433835584,0.061050453272387256
0.00018041864093920718,0.045860011263110054,0.03026972796023886,0.06406194232223204
0.00020022003718155845,0.04843333790943566,0.032874056599917045,0.06725653370464578
0.0002221946860939524,0.05100979516240459,0.03480138636908428,0.07082598809024382
0.0002465811075822604,0.05365023401180968,0.03620590296718842,0.07493835881730992
0.0002736439997074672,0.05631824931562371,0.03744564574018063,0.07942289495246636
0.00030367711180354605,0.058956200974728416,0.03885601162063248,0.08381257547512586
0.00033700643292719284,0.0613741379650094,0.04057044803661805,0.08737523678857402
0.0003739937302478798,0.06353244143206475,0.04247909823050909,0.08997801545960911
0.0004150404757850477,0.06546244130597914,0.044257941342377455,0.09194087610866698
0.00046059220411451084,0.06724355722752126,0.04574005025573934,0.09365811254780873
0.0005111433483440171,0.06903575992353632,0.04700693844244381,0.09555908571979915
0.0005672426068491978,0.07091155702653895,0.048097657715727264,0.09780685634393857
0.0006294988990221888,0.07299176278882717,0.04902362251294613,0.10044403473356583
0.0006985879746785249,0.07526332293823507,0.04974037659790896,0.10321963617350338
0.0007752597488629464,0.07780224912908056,0.05043791524608701,0.10596358003311794
0.000860346441668451,0.0806002176466171,0.051299682865760386,0.10859037209615588
0.0009547716114208065,0.08383732719818862,0.052480137648903864,0.11189524076989939
0.001059560179277617,0.08767966959156184,0.05395002532011245,0.11701906421080317
0.0011758495540521582,0.09231829816468348,0.05548498529117986,0.12461370977985509
0.0013049019780144017,0.09793844190305077,0.05682456970901817,0.13470937897976257
0.001448118227674533,0.10489977932970813,0.05839468641324376,0.14730668249990492
0.0016070528182616384,0.11387652228619284,0.06158055159282695,0.16265049635347703
0.0017834308769319094,0.12559451000180627,0.06742702099552024,0.18143721917166392
0.0019791668678535573,0.14089332481430586,0.07599476399697104,0.20516065469553918
0.002196385372416547,0.16052163319434407,0.08719424380412595,0.2351210552912378
0.002437444150122222,0.1852295364320763,0.1017541215693088,0.27181370827980317
0.002704959730463137,0.21522620625810715,0.12082273166451192,0.314206427279045
0.0030018358135755923,0.2501494880197015,0.14551375434899982,0.3602359514540608
0.003331294787934677,0.28857045273104837,0.17607653826207612,0.40715569594112505
0.0036969127071950323,0.32956826443504694,0.21127126116640185,0.45659345820765823
0.00410265810582719,0.37200904911501814,0.2479399419393304,0.5131039935541657
0.004552935074866948,0.41481035837097646,0.28429528478547267,0.5773302174235022
0.00505263106533568,0.45648666444278757,0.3202265365270356,0.6431884399729516
0.005607169938205458,0.4941036720387407,0.3536000194363853,0.7048700373831507
0.006222570836730231,0.5237332782760731,0.3782702441481024,0.7624556441319655
0.006905513520162331,0.539199387568989,0.38609347224633656,0.8111717111773136
0.007663410868007463,0.5354093031834708,0.3731600606224905,0.8344004164069487
0.008504489341802686,0.5073074767716294,0.33648573688922423,0.8102138408466488
0.009437878277775391,0.45550809638209505,0.2742195331795501,0.7379939215351556
0.010473708979594508,0.38554286316003095,0.18833065842533753,0.6351111520040573
0.011623224686798541,0.3041190713159446,0.09200175350343348,0.5179362841868731
0.01289890261253308,0.2211180909615873,0.012142934309266683,0.40126546794045737
0.014314589375234785,0.14512410335782772,-0.03526778259206774,0.29473226089974636
0.015885651294280528,0.08453238474227001,-0.055110277358256236,0.20623666383447242
0.01762914118095948,0.04396158551101272,-0.05815457088996621,0.13970049537223445
0.01956398343517065,0.02044795723133607,-0.052925150026839875,0.09277128918517388
0.021711179456945052,0.008379727919957662,-0.04467688946693531,0.06101086656314954
0.02409403560239527,0.0028129028683270734,-0.03632128524816678,0.04005820437611635
0.026738416158399492,0.00026445348658641634,-0.029462615289457934,0.02664018500234393
0.029673024081888724,-0.001044096717315342,-0.024339624380606675,0.018305861391152124
0.032929712550971546,-0.0017470022758354737,-0.02043143829410581,0.01325089743085646
0.036543830709572546,-0.002074392227597573,-0.01728990360671252,0.010214701790079472
0.040554607358408275,-0.0021856700481206197,-0.01485356576903804,0.008318349975338436
0.04500557675700498,-0.0021873581722093066,-0.01309708146940974,0.007021535373263333
0.0499450511585514,-0.0021408212609190847,-0.011867555562067372,0.00607513576349626
0.05542664520663107,-0.002073372408801592,-0.010960642865514231,0.005373554189359552
0.06150985788580504,-0.002000170227639433,-0.010226655318383114,0.004876005158703231
0.06826071834272393,-0.0019262282635657915,-0.009569274461785885,0.004559191211057728
0.0757525025877192,-0.0018525675871239574,-0.008985288335572552,0.0043864789948344415
0.08406652885618333,-0.0017775348505491048,-0.00851848328142335,0.00430737597641747
0.09329304026284696,-0.0017023857720100649,-0.008175563266123995,0.004273777238954686
0.10353218432956637,-0.001632517536538854,-0.007923329072363108,0.004241902279689482
0.11489510001873086,-0.0015677522658533553,-0.007714565141507507,0.004183475236791779
0.1275051240713013,-0.0015032926223242224,-0.007518100872921799,0.004100526558925928
0.1414991297434576,-0.001428692540986252,-0.0073123903578231845,0.004017894157674601
0.15702901247293774,-0.001335423228962433,-0.007117026363099384,0.00399899374834149
0.17426333860096507,-0.0012178840889684615,-0.006948320514556696,0.004077156142258198
0.19338917504552322,-0.0010858945883590327,-0.006817854919854739,0.0042013357175050055
0.21461411978584058,-0.000950642229689033,-0.006709507948247762,0.004294796410249049
0.23816855519761607,-0.0008073455152517366,-0.006580169819926096,0.004381875013520497
0.2643081486974108,-0.0006425298178749911,-0.006369321838071489,0.004541586936506946
0.29331662783900486,-0.0004562187318917001,-0.0060597953635367595,0.004761523857885452
0.32550885998350565,-0.00026772375762426393,-0.005688943334656307,0.004926124878926721
0.36123426997094304,-8.608592021007989e-05,-0.0052797942274810964,0.00497772274907225
0.40088063288984643,9.542032284704118e-05,-0.004846870706252016,0.004993005910726961
0.4448782831127585,0.00028328015697493225,-0.004413557483657532,0.005055373700514257
0.4937047852839004,0.0004697832259362635,-0.004059185529371758,0.0051905842455954
0.5478901179593945,0.0006446371982154906,-0.0038448648240005487,0.005377101212254491
0.6080224261649427,0.0008128411790958464,-0.0037331092704536925,0.005583854008800324
0.67475440531107,0.0009800074328592246,-0.003631975917769471,0.005769493633379669
0.748810385759003,0.0011345417030508673,-0.0034960812502013105,0.0059137281808613554
0.8309941949353403,0.0012508078846854634,-0.003329740915152306,0.006006917976753622
0.9221978823334341,0.0013304120428557836,-0.003153498247932656,0.006052909419026816
1.0234114021054528,0.0014064139317473408,-0.002994607137127301,0.006072514178534088
1.135733358343105,0.0014974144189700252,-0.002852374458449656,0.0060812869618399445
1.2603829296797273,0.0015891374061399895,-0.002701736168468244,0.00610085389116236
1.3987131026472386,0.0016595557569361236,-0.002539549798653603,0.006134913393172444
1.552225357427048,0.0017072506980015157,-0.0024409487334008206,0.006184376672417095
1.7225859653987874,0.0017368064820918274,-0.0024865389747478137,0.00625179288882633
1.9116440753857036,0.001752987965841919,-0.002663124972620877,0.006383210448618977
2.121451784910632,0.001753974281914162,-0.0028894847146197456,0.00661334972504328
2.35428641432242,0.001734516618488963,-0.003098084196702873,0.006873073368510923
2.612675225563332,0.0016876417563770737,-0.0032453131120714148,0.007001960738157482
2.8994228538828812,0.001612608469940401,-0.003329355729002106,0.006923634628302721
3.2176417502507353,0.0015217307432091778,-0.0033902836218618914,0.006704473733479077
3.5707859649004625,0.0014258658506010435,-0.0034554938454646115,0.006429822767466965
3.9626886387014784,0.0013358249260033018,-0.003524823808694895,0.006177281749544814
4.397603609302721,0.00125548194692646,-0.0035813625567518827,0.005979298239408169
4.880251583654434,0.0011828924544568114,-0.0036217153089381973,0.005826310585879166
5.415871378079476,0.0011114283236841368,-0.0036442690741429803,0.0056858438973340876
6.010276782070388,0.0010363022158199069,-0.003656915675751822,0.005554386715144457
6.669919663030129,0.0009539748671294089,-0.0036678054281236113,0.005443264869203408
7.401959996915652,0.0008622111502319451,-0.0036849615137409942,0.005351795543438805
8.214343584919439,0.0007630442387951111,-0.0037190003951385973,0.005269965655489653
9.115888299750837,0.0006636326383864943,-0.0037852468655709508,0.0052007630134621695
10.11637979766207,0.0005795064407160025,-0.0039076929084910774,0.0051738380888086905
11.226677735108158,0.0005154248487679663,-0.004081154781906568,0.005174917984079485
12.458833642950081,0.0004557460834855269,-0.0042402753485121965,0.0051071902902482605
13.826221737646593,0.0003808984886975106,-0.004232002409501343,0.004805912208264086
15.343684089300131,0.0002881823410041095,-0.0038247736514307198,0.004109377317587192
17.02769172225898,0.00018796593435058237,-0.0028588353495672134,0.0029547093909195374
18.896523396912116,9.768441830480445e-05,-0.0016083516855202543,0.0016277035134343767
20.970464013232306,3.731450239584965e-05,-0.0006383709720083993,0.0006397837882504627
23.27202478960412,9.933155247578161e-06,-0.00017280861050594643,0.00017246788014633354
25.826187606826746,1.7933696614336174e-06,-3.141913056973783e-05,3.130281110393202e-05
28.66067616948256,2.1694848569972082e-07,-3.8118050029738183e-06,3.79499978297724e-06
31.80625692794119,1.7495430671200902e-08,-3.0775653903814813e-07,3.0631140245550727e-07
35.297073027306574,9.385527047227586e-10,-1.6517625933142746e-08,1.6438142560219853e-08
39.17101490809261,3.346460599865731e-11,-5.890582645689311e-10,5.861959479573313e-10
43.47013158125035,7.927831324799431e-13,-1.395599411254113e-11,1.3887913840222629e-11
48.241087041653735,1.247680476792565e-14,-2.1964607825519624e-13,2.1857290305860145e-13
53.535666774107185,1.3043910544226875e-16,-2.296325401768163e-15,2.285098543923001e-15
59.411339849650396,9.05852825301416e-19,-1.5947239090227188e-17,1.5869252018588248e-17
65.93188271333541,4.1787732311392776e-21,-7.356607312401737e-20,7.320627397512277e-20
73.16807143427206,1.2805001886963253e-23,-2.254284811387051e-22,2.243259020898344e-22
81.19844993184009,2.606450640547474e-26,-4.5885851133634775e-25,4.566141788954936e-25
90.11018251665037,3.524180213409515e-29,-6.204223803312023e-28,6.17387798426369e-28
100.0,3.165230546759104e-32,-5.572302951049965e-31,5.545047878183995e-31
