tau,gamma,gamma_lo,gamma_hi
1e-07,4.877699314419063e-06,-2.390774322526652e-05,4.281061831165298e-05
1.1097524964120721e-07,2.496381496502311e-05,-0.00012242146750731257,0.00021883930134989566
1.2315506032928263e-07,8.631599840469411e-05,-0.0004237769823556974,0.0007544763292676352
1.3667163564620074e-07,0.00020629796539147144,-0.0010150578358182106,0.0017910373034121236
1.5167168884709241e-07,0.00035761066511378524,-0.001763569697271531,0.0030591367489497356
1.6831803533309585e-07,0.0004887423112279256,-0.0023966977461300104,0.004063719205855457
1.867913599020781e-07,0.0005838500830409323,-0.0027590186018440154,0.0046362002255258905
2.0729217795953698e-07,0.0006593073663316523,-0.002828112013205203,0.004917294494840657
2.300430119772917e-07,0.0007252184165889329,-0.0026842651750435564,0.005036293617496075
2.5529080682395163e-07,0.0007726895574152011,-0.0024946049365740974,0.0050158323048164885
2.833096101839324e-07,0.0007912661968353268,-0.0023664514849569343,0.0048544949828406795
3.1440354715915e-07,0.000783047795826623,-0.0022904048477432495,0.004616525317096035
3.489101213406774e-07,0.0007509719634581878,-0.00222586577033598,0.004361163262643129
3.872038781812557e-07,0.0006958938345591977,-0.0021875611740659706,0.00410953014433995
4.2970047043208437e-07,0.000618987166186511,-0.0022158071553989504,0.003869554643097364
4.768611697714474e-07,0.0005336437812675175,-0.0023255454505354653,0.0036957657577840622
5.291978735958437e-07,0.0004583005509996275,-0.0025031760763541398,0.0036577350902896218
5.872786613189477e-07,0.0003916107786174911,-0.0027240523557420728,0.003726936354957689
6.517339604882421e-07,0.000315833903095307,-0.002951070027359141,0.0037764786140897103
7.232633896483533e-07,0.00022594094352559478,-0.003144788966028151,0.003716640600825752
8.026433522257174e-07,0.0001423462295726971,-0.0032723564881632795,0.003553810266262389
8.907354638610439e-07,8.204577929485013e-05,-0.0033385067012966204,0.0033315991104502242
9.884959046625586e-07,4.137907961139717e-05,-0.003421322670528171,0.0031239242024149964
1.096985797892384e-06,1.1687640438507557e-05,-0.003567709141577694,0.0029955043092398485
1.217382727739662e-06,-5.869631094361575e-06,-0.0036977034201881847,0.002978227662240577
1.3509935211980278e-06,-5.986282810110517e-06,-0.003682635012297896,0.0030689140199928362
1.499268432786047e-06,5.5233515978814165e-06,-0.003531131647568344,0.003219656657069686
1.6638168860761274e-06,1.5812292143315816e-05,-0.00335781907296041,0.0033498917616351515
1.8464249428955464e-06,2.4453826248622213e-05,-0.003230588269793461,0.0034104224323505206
2.049074689815846e-06,4.4877858362495805e-05,-0.0031481080770959886,0.0033964584687482076
2.2739657523579273e-06,8.410437623414016e-05,-0.003095478396472665,0.003336695205791066
2.523539170434766e-06,0.00013244431732350743,-0.0030820423986071322,0.0032990928892332435
2.800503894183631e-06,0.0001762635549144111,-0.003120359266496832,0.0033230222364503477
3.107866187782014e-06,0.00020708464094622108,-0.0032153789257613826,0.0033850790155817664
3.4489622604057595e-06,0.00022327116188997352,-0.003338422609889904,0.003441152869557032
3.827494478516315e-06,0.00023595039759139195,-0.003409983485018466,0.0034953154203683067
4.247571552536894e-06,0.0002614985928228791,-0.003336966738536849,0.0035731962124356865
4.713753134116729e-06,0.00030791320832669974,-0.0031332047525223236,0.003679981803406158
5.2310993080562585e-06,0.0003734060009757979,-0.0029014415905897566,0.0037920193965158824
5.805225516094895e-06,0.00045059941851097077,-0.0027087662448625886,0.0038815435646379105
6.44236350872137e-06,0.0005279242194192894,-0.0025662855872424363,0.003933408644092625
7.149428986597577e-06,0.0006009746544078584,-0.002463078587875387,0.0039681784567705
7.934096665797492e-06,0.0006766979803954394,-0.0023943196356946473,0.004061438638067409
8.804883581643465e-06,0.0007569131053481663,-0.0023514721936854816,0.004239331626969269
9.771241535346501e-06,0.0008276427015956286,-0.002320296938608148,0.004403535097945969
1.0843659686896109e-05,0.000874825531701696,-0.002279622273407686,0.004430842714544881
1.2033778407775906e-05,0.0009162923349549694,-0.0022158100602006825,0.004357056845444414
1.3354515629298974e-05,0.0009854558657490054,-0.0021183869990179546,0.0043143474359241315
1.48202070579886e-05,0.0010925547997954652,-0.0019856946470811583,0.004377726667932802
1.6446761779946626e-05,0.0012212876846806457,-0.0018285445493186445,0.004542755403425205
1.8251834943190462e-05,0.0013560119898878447,-0.0016691167301920793,0.004764114059105219
2.0255019392306664e-05,0.001489419134759683,-0.0015453350368625329,0.004976908376203996
2.2478058335487252e-05,0.0016189410942344204,-0.0014694185639296522,0.005136990047438953
2.4945081352303165e-05,0.0017472453256439137,-0.001410308922573914,0.0052600802648790175
2.7682866303920665e-05,0.0018736843633809796,-0.0013318499583232773,0.0053746918761189925
3.072112998861759e-05,0.001997444120940792,-0.0012374238957855621,0.005514815789869861
3.409285069746814e-05,0.0021168117409466093,-0.0011489716277918686,0.005694153711747754
3.783462617131933e-05,0.002245034104293433,-0.0010776132717572671,0.005902670015172786
4.1987070844439056e-05,0.0024005228178595795,-0.001013396603469962,0.006105959046020215
4.659525668664687e-05,0.0025921988445994854,-0.0009146567697202149,0.006285250348631585
5.170920242896755e-05,0.0028153529360575268,-0.0007238152585956243,0.006447595317257208
5.7384416483024044e-05,0.003064258469013544,-0.0004415892139814078,0.006634057222395195
6.368249944718586e-05,0.0033366489269090215,-0.0001609131703412419,0.006928250977572074
7.067181273927492e-05,0.003627130867039708,4.1791594348103475e-05,0.007362978410243808
7.842822061337681e-05,0.003931563136970287,0.00017454543565863104,0.00787406036592151
8.703591361485166e-05,0.004242983953248101,0.0002785750385262881,0.008366747984697168
9.658832241158708e-05,0.004572170693672864,0.00038288364947722204,0.008834107722163599
0.00010718913192051276,0.004930401940246114,0.0005021844759223737,0.009317300866955073
0.00011895340673703195,0.005333762191055177,0.0006473543891527404,0.00989598584684697
0.0001320088400831418,0.005789931634346663,0.0008284444900240251,0.01063271228311194
0.00014649713983072864,0.006301912002126677,0.0010568188808478581,0.011489868245635661
0.0001625755666443795,0.0068657096284314035,0.0013399193497708897,0.012326154191196207
0.00018041864093920718,0.007488661399830172,0.0016755363093234872,0.01307903519471637
0.00020022003718155845,0.008203334565672476,0.0020441849734333627,0.013866297530215043
0.0002221946860939524,0.009036027686215706,0.00243076720886196,0.014822849935691723
0.0002465811075822604,0.010006861651625103,0.002850344278121215,0.016039111227690514
0.0002736439997074672,0.01111432809668485,0.003356934833369791,0.017552527059018448
0.00030367711180354605,0.012368694030983134,0.004073759808137929,0.019412236313224855
0.00033700643292719284,0.013764465478871238,0.005139646654934731,0.021618283653157225
0.0003739937302478798,0.015321021816694043,0.006591341675711446,0.02410823804767008
0.0004150404757850477,0.01704166599994742,0.008323966770430286,0.026701530111304814
0.00046059220411451084,0.018917340567120113,0.010149185044625354,0.029233611816438906
0.0005111433483440171,0.02091163424215394,0.011804951084859874,0.03159477462488253
0.0005672426068491978,0.023020149850582025,0.013219261734639305,0.03388189078549188
0.0006294988990221888,0.025328689900289674,0.014667062107976286,0.036538317745850216
0.0006985879746785249,0.02790590981429646,0.016453923299968296,0.039846651334146846
0.0007752597488629464,0.030810834556459128,0.01870279463807425,0.043633062620201425
0.000860346441668451,0.03403177684121242,0.021352835517731657,0.04757380507490456
0.0009547716114208065,0.0376006737424601,0.024250413955334983,0.051926021485793915
0.001059560179277617,0.04151205665805894,0.027185800678165808,0.0571504941524696
0.0011758495540521582,0.04584713306999353,0.03019309984432038,0.06327825071659049
0.0013049019780144017,0.0506870662201669,0.03342442035228345,0.06982907787803787
0.001448118227674533,0.05611025915096265,0.03681944003341755,0.07669308300273087
0.0016070528182616384,0.0621825605210752,0.0400441560654476,0.08437362181416545
0.0017834308769319094,0.06904508742604508,0.043060968790338716,0.09335373390157552
0.0019791668678535573,0.0771025166995654,0.046583363109692896,0.10391117297084848
0.002196385372416547,0.08680876138637,0.05118816845540184,0.11630667745104362
0.002437444150122222,0.09877859331542664,0.05671149822118939,0.13143617468627078
0.002704959730463137,0.11362401000459628,0.0631466263596119,0.15035563417134454
0.0030018358135755923,0.1321801439348248,0.07247582150607841,0.17413846064039396
0.003331294787934677,0.1550330442685538,0.08754257779616505,0.20340795378154952
0.0036969127071950323,0.18227773909434028,0.1085669507062824,0.23854455061861493
0.00410265810582719,0.21315398199555358,0.1329500495564219,0.27921465393308503
0.004552935074866948,0.24744131828090815,0.16017600779917585,0.3253730951838293
0.00505263106533568,0.2853728014510105,0.19293055795000869,0.3768619350837173
0.005607169938205458,0.3261122031747994,0.23231104098861355,0.4323418449357843
0.006222570836730231,0.3668561905135721,0.27402805608453024,0.48855550516923685
0.006905513520162331,0.40343743824908174,0.31164541531222,0.5398800752709288
0.007663410868007463,0.43351984247952713,0.3419530644700165,0.5810865054547986
0.008504489341802686,0.45463237689539726,0.36282900836599385,0.6067140185786726
0.009437878277775391,0.4656710575370887,0.37357698183559346,0.6173751920162502
0.010473708979594508,0.4655742489890209,0.3731400995712669,0.6164709595479244
0.011623224686798541,0.453943983635015,0.3600360152043247,0.6039467605765163
0.01289890261253308,0.4318696850571257,0.3336278140880163,0.5765276114698513
0.014314589375234785,0.4007847787842671,0.29635284377876525,0.5334606062909988
0.015885651294280528,0.3646565570269351,0.2572706330897198,0.4827404587813295
0.01762914118095948,0.32647046276948966,0.22350655290761817,0.43152822539285746
0.01956398343517065,0.28856820444150033,0.1955030789660084,0.3827199971988041
0.021711179456945052,0.2522031531661833,0.17030648753166672,0.33621448549977406
0.02409403560239527,0.21832592657107602,0.14592671759766931,0.2923408094941209
0.026738416158399492,0.18782672816010254,0.12192939069628712,0.2522052519802448
0.029673024081888724,0.16091964572557071,0.09919903588854036,0.21644621352875648
0.032929712550971546,0.13779003865246714,0.07988969107557806,0.1857944523394006
0.036543830709572546,0.11821777800789568,0.06532390818047107,0.16012440389085086
0.040554607358408275,0.10213084966008962,0.05583188225834119,0.13914209273839712
0.04500557675700498,0.0890794349492124,0.05042767153006319,0.12214598065221091
0.0499450511585514,0.07839544139919191,0.04666951935918699,0.10845992970344075
0.05542664520663107,0.06934013608201886,0.04240024664077366,0.09721772280884963
0.06150985788580504,0.061513046317269254,0.03743330790443521,0.08751320681397735
0.06826071834272393,0.0546730639283573,0.03250582386541723,0.07851515772871283
0.0757525025877192,0.048644548336268544,0.028090086475616345,0.06999073346271965
0.08406652885618333,0.04331229897299337,0.024342435396805348,0.06214841418271527
0.09329304026284696,0.03857638855166877,0.021264920824180706,0.05513589818097963
0.10353218432956637,0.034439355963599566,0.018830530498459567,0.04910115209659645
0.11489510001873086,0.030832521511347227,0.016779501075911543,0.044013069664972745
0.1275051240713013,0.02769895420850455,0.01465421932994817,0.039818767473666986
0.1414991297434576,0.024921697409807216,0.012210911900111195,0.03633155574810689
0.15702901247293774,0.022420676338970373,0.009789137918787731,0.03333130035456952
0.17426333860096507,0.02011313294923084,0.007805375218780989,0.030598256707066188
0.19338917504552322,0.017992527243149134,0.006298654942223161,0.028114391443012754
0.21461411978584058,0.016072385928015166,0.005103290070072733,0.025933170478809813
0.23816855519761607,0.0143399744329006,0.00410665169523625,0.024060488656307295
0.2643081486974108,0.012766714292629868,0.003257656043506095,0.022450925324230462
0.29331662783900486,0.011290294959772048,0.002400682820014667,0.021016363215513187
0.32550885998350565,0.009850393724006557,0.001272072205933132,0.019698711839712554
0.36123426997094304,0.00836713618764726,-0.00029591656447797106,0.01851360983697699
0.40088063288984643,0.006781989112984349,-0.0022748902644683993,0.017614909207120808
0.4448782831127585,0.005010357894873724,-0.0046894297768061,0.01699050173532477
0.4937047852839004,0.0029644874275165612,-0.0077541852434072946,0.01632468966249522
0.5478901179593945,0.0005011403048192716,-0.011797035327077633,0.015303178266905424
0.6080224261649427,-0.0026036206466478963,-0.017146618875601562,0.014105485840390633
0.67475440531107,-0.0066986894823476105,-0.02419480490178399,0.013130691032666938
0.748810385759003,-0.012314255398382356,-0.03354801266430478,0.012417805431726266
0.8309941949353403,-0.020103364005896532,-0.0458597404262159,0.011297635703687315
0.9221978823334341,-0.03066441350806867,-0.06154604073234421,0.007910856535480399
1.0234114021054528,-0.044245139117105786,-0.08047842937115499,-0.0005703860501536281
1.135733358343105,-0.060658714477000455,-0.10259040136081812,-0.015411117818225994
1.2603829296797273,-0.07877723685338152,-0.12756612577802237,-0.03451674540344444
1.3987131026472386,-0.09705124284567672,-0.15405490700432595,-0.05485573230030842
1.552225357427048,-0.11383789457133182,-0.17889219963833855,-0.07371810137047802
1.7225859653987874,-0.1273192920650759,-0.1980260571875521,-0.08869504973608948
1.9116440753857036,-0.13665252577942438,-0.20972013165631784,-0.09860441378366504
2.121451784910632,-0.14102879315902944,-0.21331285118061236,-0.10243582942392941
2.35428641432242,-0.1398487489829213,-0.20954961805588354,-0.09954464195165724
2.612675225563332,-0.13263779857790087,-0.19985503551000364,-0.08968623298678444
2.8994228538828812,-0.11984610401561928,-0.18484975440762397,-0.07404143156218351
3.2176417502507353,-0.10366940734805932,-0.16493751686274963,-0.05609379117835103
3.5707859649004625,-0.08606855841799729,-0.14074305086282143,-0.038735653955897495
3.9626886387014784,-0.06882410551931985,-0.11499706822336973,-0.02361017974134324
4.397603609302721,-0.05314727915205976,-0.09049313997841091,-0.011581449610995524
4.880251583654434,-0.039787250449549776,-0.06924311753689207,-0.0030501230306462725
5.415871378079476,-0.029222560807212784,-0.052497690569655996,0.0018233164098190261
6.010276782070388,-0.021358848989773596,-0.04012895108150677,0.0037929814860571533
6.669919663030129,-0.015858739467269744,-0.03136059893323565,0.004099793602193286
7.401959996915652,-0.012157208476110891,-0.025207631805827732,0.0037254721164699514
8.214343584919439,-0.009611886748642443,-0.02078608283649382,0.003314735460858872
9.115888299750837,-0.007726737245902315,-0.017491969035054202,0.0031424131850969453
10.11637979766207,-0.006222601225594284,-0.015043435663434091,0.003184489890631586
11.226677735108158,-0.004959242472120842,-0.013192697220121397,0.0033090412167413844
12.458833642950081,-0.0039040664658166625,-0.011569886948361014,0.0033622572742745584
13.826221737646593,-0.003033095088834285,-0.009782027093288306,0.0031947165092640027
15.343684089300131,-0.002255144869435365,-0.007626293403934578,0.0027208086431666357
17.02769172225898,-0.0014863655139603466,-0.005134421286187464,0.0019425835385394402
18.896523396912116,-0.0007823126278820579,-0.002725704361325603,0.0010649763050194754
20.970464013232306,-0.00030110320861942154,-0.001052670746383375,0.0004175753513194221
23.27202478960412,-8.044116221712352e-05,-0.0002816080617639076,0.00011244431646127348
25.826187606826746,-1.4545577800092694e-05,-5.094887104095339e-05,2.0399239417212224e-05
28.66067616948256,-1.7607434480391607e-06,-6.1687221706052504e-06,2.4726390489806266e-06
31.80625692794119,-1.4202929148974543e-07,-4.9764044106525e-07,1.995624689295304e-07
35.297073027306574,-7.620056889265682e-09,-2.670001957874289e-08,1.0709148714000968e-08
39.17101490809261,-2.7170899843368825e-10,-9.5205866139307e-10,3.8189111156795647e-10
43.47013158125035,-6.436952492852924e-12,-2.2554985314135174e-11,9.047561367853087e-12
48.241087041653735,-1.0130534447131179e-13,-3.5497325886693966e-13,1.4239342892064622e-13
53.535666774107185,-1.059102601634959e-15,-3.711092111184529e-15,1.488669184116118e-15
59.411339849650396,-7.35509641752797e-18,-2.577224426434186e-17,1.0338310586205876e-17
65.93188271333541,-3.392967775489253e-20,-1.188895469843452e-19,4.769154165257591e-20
73.16807143427206,-1.0397062635952558e-22,-3.6431296363964655e-22,1.4614112875524075e-22
81.19844993184009,-2.116316177947143e-25,-7.415569817579155e-25,2.9746948253329662e-25
90.11018251665037,-2.861469814864238e-28,-1.002658753756762e-27,4.022083319842256e-28
100.0,-2.57001947468858e-31,-9.005345858146108e-31,3.612420678464085e-31
