tau,gamma,gamma_lo,gamma_hi
1e-07,1.0421851551336273e-05,-5.132392465674379e-05,9.526416104822162e-05
1.1097524964120721e-07,5.326402661676759e-05,-0.00026230724193560147,0.00048617810638962615
1.2315506032928263e-07,0.0001835475766008178,-0.0009039227061740663,0.0016695903046872213
1.3667163564620074e-07,0.0004352316259955588,-0.0021435615064304622,0.003927356909705818
1.5167168884709241e-07,0.0007415159316411194,-0.0036534148074637974,0.006577362622326503
1.6831803533309585e-07,0.0009800153533554199,-0.0048360707981846,0.008425045665491902
1.867913599020781e-07,0.001108562018423035,-0.005496009328767536,0.009113654636752656
2.0729217795953698e-07,0.0011645481212578016,-0.005817608940818559,0.009112746755821152
2.300430119772917e-07,0.0011942896541658676,-0.005963492976406897,0.008925042961620555
2.5529080682395163e-07,0.0012279529796084129,-0.005956426333743736,0.00884039474237325
2.833096101839324e-07,0.0012669021188414491,-0.005791965645408283,0.008916710091612755
3.1440354715915e-07,0.0012832623855738245,-0.005553812542342108,0.009018428487529345
3.489101213406774e-07,0.0012488109874159831,-0.005328645143953716,0.008953751716621416
3.872038781812557e-07,0.0011718962983415927,-0.005160555926361372,0.008640183860997139
4.2970047043208437e-07,0.0010740971667491498,-0.005059584081374279,0.008090632306630981
4.768611697714474e-07,0.0009655605724720536,-0.0050382640935193465,0.007483952502892319
5.291978735958437e-07,0.0008466072812971069,-0.005115337518017837,0.007067376981534202
5.872786613189477e-07,0.0007199838414699022,-0.005310348616220818,0.006892260771564546
6.517339604882421e-07,0.0005938901351562556,-0.005633348432600529,0.006811658502287855
7.232633896483533e-07,0.00046307631976292315,-0.006056517108177034,0.006680962412060558
8.026433522257174e-07,0.00030875829750162047,-0.006502199408053377,0.006455180924880741
8.907354638610439e-07,0.00012277478393165044,-0.006890503484134852,0.006162376454077253
9.884959046625586e-07,-6.888886171238367e-05,-0.00718713117738206,0.0059228846091719176
1.096985797892384e-06,-0.00023234994853142465,-0.007362446401023893,0.0058172247522438846
1.217382727739662e-06,-0.0003544998835831521,-0.0074098611827156085,0.005775633645937507
1.3509935211980278e-06,-0.0004344716474798938,-0.007323021704382114,0.005659026750954296
1.499268432786047e-06,-0.0004800105626099678,-0.007137385493779457,0.00544561724303947
1.6638168860761274e-06,-0.0005007766573712854,-0.006915951999826718,0.0052251117638246955
1.8464249428955464e-06,-0.0005041475784454591,-0.0067129914818434885,0.005109504550811919
2.049074689815846e-06,-0.0004949291523687661,-0.006577484125427531,0.0051993144632250755
2.2739657523579273e-06,-0.00047389151070247054,-0.006525668998440491,0.005482872401902048
2.523539170434766e-06,-0.0004400848494958651,-0.006545819074005673,0.005802847401079271
2.800503894183631e-06,-0.00039230846855647125,-0.006589422499016012,0.006015630152811923
3.107866187782014e-06,-0.00033455826005457693,-0.006590142283923033,0.006128233140198047
3.4489622604057595e-06,-0.00027253134268854747,-0.006494528774107846,0.0061819308080962206
3.827494478516315e-06,-0.0002127215605013183,-0.006354898997745804,0.006168395288410282
4.247571552536894e-06,-0.0001621816025256098,-0.006263288097280144,0.006054096606066224
4.713753134116729e-06,-0.00012554878153391084,-0.006249601636980993,0.005904644543978894
5.2310993080562585e-06,-0.00010460656063612023,-0.0062869080069149945,0.005856849565944989
5.805225516094895e-06,-9.259589471282742e-05,-0.006366867648674572,0.005937680222928991
6.44236350872137e-06,-7.453109990011305e-05,-0.006509759446614486,0.006034324053182045
7.149428986597577e-06,-4.154878856952397e-05,-0.006661435367876705,0.006042995491692984
7.934096665797492e-06,1.080596611941913e-06,-0.006662844715204314,0.005969663910805727
8.804883581643465e-06,4.55484760914573e-05,-0.006404966562944052,0.005878352835830351
9.771241535346501e-06,9.056794868981232e-05,-0.006025640757402831,0.005890367626026829
1.0843659686896109e-05,0.00014259596472725725,-0.005724710751972365,0.006094313898676102
1.2033778407775906e-05,0.0002169002658988521,-0.005552582355038336,0.006442205186415757
1.3354515629298974e-05,0.0003246887570061182,-0.005466057200432895,0.006796518613424001
1.48202070579886e-05,0.0004453442945895116,-0.005497670638466974,0.007094082360891986
1.6446761779946626e-05,0.0005304294817611013,-0.005746567567144408,0.007354656959036814
1.8251834943190462e-05,0.0005602408417897416,-0.006176329749108866,0.007628407896876065
2.0255019392306664e-05,0.0005580379566213847,-0.006558233708271433,0.007963007416568735
2.2478058335487252e-05,0.0005436867637825626,-0.006715509339422786,0.008303202874039338
2.4945081352303165e-05,0.0005116096943175052,-0.006692614729329296,0.00846369660909401
2.7682866303920665e-05,0.0004487654038295798,-0.006600541617281967,0.00830894266419791
3.072112998861759e-05,0.00035905019372555857,-0.006531341536516147,0.008010196051888071
3.409285069746814e-05,0.0002525357354080343,-0.0065222696003123205,0.007819950969948055
3.783462617131933e-05,0.00012962826704293772,-0.006552778228630411,0.0077599865025398005
4.1987070844439056e-05,-1.654523127200385e-05,-0.0065806416109978295,0.007665428776139423
4.659525668664687e-05,-0.00019119385491715856,-0.006645934752042934,0.0074311561107686195
5.170920242896755e-05,-0.000392053541927529,-0.006868416115088014,0.007076517021092324
5.7384416483024044e-05,-0.0006150704092294639,-0.007296224016801552,0.006697007586080782
6.368249944718586e-05,-0.0008505524369739058,-0.007861017102733769,0.006464480762498944
7.067181273927492e-05,-0.0010869144750837313,-0.008499923856683689,0.00647573595553198
7.842822061337681e-05,-0.0013133164139257094,-0.00924509943426024,0.0066629188826165114
8.703591361485166e-05,-0.0015298336712187676,-0.010100963415514268,0.006850872987069009
9.658832241158708e-05,-0.0017697598105188284,-0.010948372151352925,0.006839184996104487
0.00010718913192051276,-0.002069411560094805,-0.011616506661686295,0.006480209285230897
0.00011895340673703195,-0.0024245241764959784,-0.01214511771540408,0.005905089612011405
0.0001320088400831418,-0.0027942604907338097,-0.012717070048154111,0.005430785154035569
0.00014649713983072864,-0.0031633165693675546,-0.013443854698438059,0.005189937362271993
0.0001625755666443795,-0.0035472093777914808,-0.014341573157947044,0.005101864971443611
0.00018041864093920718,-0.003965120374823408,-0.015494916361612324,0.0051339150045594684
0.00020022003718155845,-0.004425002897195892,-0.017198863637837992,0.005457767203136699
0.0002221946860939524,-0.004911823385648461,-0.01991287557944119,0.0063577622933661355
0.0002465811075822604,-0.0053944201702779155,-0.024184617920675403,0.00815008514865582
0.0002736439997074672,-0.00584826978225217,-0.030142089231156213,0.011069863224002774
0.00030367711180354605,-0.006289860864901007,-0.036899801602099304,0.015197538127073905
0.00033700643292719284,-0.006542616563219998,-0.04392250165143832,0.021391641030210965
0.0003739937302478798,-0.0059169522965312965,-0.054477834889239934,0.03330453061411497
0.0004150404757850477,-0.0036825561413258248,-0.07631231697543668,0.05816598597025042
0.00046059220411451084,-0.00021992674154501111,-0.11982761279576519,0.10661866648801702
0.0005111433483440171,0.00721380124838992,-0.1977015133239774,0.19787573002663517
0.0005672426068491978,0.040522738132004195,-0.3206419624638452,0.3729668551212516
0.0006294988990221888,0.15194848551319126,-0.4799843408867277,0.7057222851258608
0.0006985879746785249,0.3981636703658554,-0.6082124910113057,1.2890182409060382
0.0007752597488629464,0.7979406905754534,-0.5489248802591481,2.181663633935324
0.000860346441668451,1.2989868869243475,-0.20926764549520854,3.2914653595007617
0.0009547716114208065,1.7161458480028202,0.17834085529738009,4.183624601335113
0.001059560179277617,1.8120639811087182,0.23332899758190517,4.288888613547573
0.0011758495540521582,1.5722994578134308,-0.05994463341420453,3.6050020023795097
0.0013049019780144017,1.1959141118027283,-0.3630076628168528,2.6742798097982363
0.001448118227674533,0.8349352568637948,-0.47656502148971186,1.8882320391314578
0.0016070528182616384,0.5277591229295494,-0.49172521844654743,1.3037903117909053
0.0017834308769319094,0.26774429730095284,-0.543092120760983,0.861685510598007
0.0019791668678535573,0.053685313906578866,-0.6625934265259853,0.5294049636735018
0.002196385372416547,-0.11000562394682023,-0.8238120352822778,0.2985943123058081
0.002437444150122222,-0.22617714020722807,-0.988374792477507,0.15163789416842416
0.002704959730463137,-0.2990742955959276,-1.1139386021026547,0.06712060012176199
0.0030018358135755923,-0.33410015169994073,-1.1666273368990756,0.02600500993543853
0.003331294787934677,-0.3355889731023837,-1.1279259349269601,0.01877660092415041
0.0036969127071950323,-0.3096412083069322,-1.0380532109680598,0.05569419170184277
0.00410265810582719,-0.26099538914667136,-0.986442258511063,0.16592526347185782
0.004552935074866948,-0.17593230116424996,-0.9988577831875848,0.37589501140080744
0.00505263106533568,-0.020325586305073792,-1.0007369317769608,0.6938948031751745
0.005607169938205458,0.22916721295736517,-0.9220239834047661,1.1133148560031978
0.006222570836730231,0.5528294648013774,-0.772847901277678,1.603435689665633
0.006905513520162331,0.9169748698955934,-0.575408887523508,2.1414301472915054
0.007663410868007463,1.2945367151898306,-0.3053361680151223,2.7387579080746653
0.008504489341802686,1.6307920152498359,0.044888946033734486,3.3499501986149105
0.009437878277775391,1.805083547965441,0.3348659424963014,3.7414580456936632
0.010473708979594508,1.6672338444392314,0.3381976865173157,3.5722877761585425
0.011623224686798541,1.2411135046583965,0.057610111132410616,2.8353113566197137
0.01289890261253308,0.7574162474093866,-0.23330332316094726,1.9322631427574797
0.014314589375234785,0.39349919472236594,-0.3416737846319498,1.1909133092939388
0.015885651294280528,0.17446059569196465,-0.3082476629020776,0.6854279379283474
0.01762914118095948,0.06239515814623049,-0.23621353966041184,0.37492684506181784
0.01956398343517065,0.013630411669566288,-0.17236794012787518,0.19732483853858807
0.021711179456945052,-0.0036423018964069857,-0.12286450271819578,0.10310402341591347
0.02409403560239527,-0.00763071483726457,-0.08582618297060093,0.05653693926781357
0.026738416158399492,-0.007711050032036389,-0.060719063206209095,0.03332308740763827
0.029673024081888724,-0.007394288028581899,-0.045388449056030976,0.020838495902702692
0.032929712550971546,-0.007078130883999073,-0.03611434327973687,0.014242916611659084
0.036543830709572546,-0.006553111267961348,-0.02998339838482146,0.011298115338168017
0.040554607358408275,-0.005884099077264115,-0.025534966938025656,0.010082862154019358
0.04500557675700498,-0.005196516512727926,-0.022137564837803745,0.009347544215443825
0.0499450511585514,-0.004538550208094555,-0.0196140665322389,0.008776599846055283
0.05542664520663107,-0.003909826805227619,-0.01782930124449013,0.008366485518427207
0.06150985788580504,-0.003332803999954764,-0.01646756550703543,0.007981775341968004
0.06826071834272393,-0.0028326344985776333,-0.015168142844465101,0.007467414712041712
0.0757525025877192,-0.002395974451235394,-0.01382637002688158,0.006979005660071577
0.08406652885618333,-0.001991533142384591,-0.012526047579628583,0.0068165764229936735
0.09329304026284696,-0.0016121369484198417,-0.011347229628139084,0.006926288579633038
0.10353218432956637,-0.0012830543213380315,-0.01034440126030361,0.006918617765422134
0.11489510001873086,-0.0010089096389825612,-0.009508320240907602,0.0066261885701121405
0.1275051240713013,-0.0007666609042649436,-0.008807097323493728,0.006303939482958641
0.1414991297434576,-0.000540531035768764,-0.008220894457141012,0.006218733948948025
0.15702901247293774,-0.0003485658112689038,-0.007800283163636011,0.006421831159075853
0.17426333860096507,-0.000209190992280846,-0.0075796114895737175,0.0068224908922554905
0.19338917504552322,-0.00010415491859388683,-0.007511393426124028,0.007265946161290111
0.21461411978584058,-5.091391916280326e-06,-0.007494686834655343,0.007579571923089188
0.23816855519761607,8.439201421571213e-05,-0.007460327953909079,0.007694192850444297
0.2643081486974108,0.0001388876741519684,-0.007367287724294938,0.007625908351242152
0.29331662783900486,0.00016333691213134746,-0.007213850322592639,0.007483730787714862
0.32550885998350565,0.00019437694174311094,-0.007048699245606496,0.007450041008276532
0.36123426997094304,0.00024224690767949892,-0.006956857536143954,0.007606521180581104
0.40088063288984643,0.00026897433891122705,-0.007058754477302808,0.007878901900500291
0.4448782831127585,0.00024398657651078805,-0.00734213781531873,0.00812443091589157
0.4937047852839004,0.00018803104566116085,-0.007558213691585978,0.008218805654717951
0.5478901179593945,0.0001372500261280503,-0.007465174943016206,0.008097835169453834
0.6080224261649427,0.00010493555086371739,-0.007185502571456352,0.007885807274645816
0.67475440531107,8.900472623977225e-05,-0.0070028546681047505,0.007760091668778475
0.748810385759003,8.812640824623324e-05,-0.0069913571523123755,0.007741202278043095
0.8309941949353403,0.00010354686675168227,-0.0070197184213148245,0.007713823933037063
0.9221978823334341,0.00012983427865468126,-0.00697543446308074,0.007612687816953816
1.0234114021054528,0.00015214269746265712,-0.00684146418633791,0.007477642730343144
1.135733358343105,0.00015861048634532775,-0.006661726596237421,0.007359171568759818
1.2603829296797273,0.00014603031629677153,-0.006553892041308277,0.00729918531025517
1.3987131026472386,0.00011400354764355535,-0.006622030443957879,0.00730306714297297
1.552225357427048,6.440231720823339e-05,-0.006908396769251429,0.00735163138182448
1.7225859653987874,3.544396727881727e-06,-0.007351414971629958,0.007399454536284213
1.9116440753857036,-5.191207342281364e-05,-0.00774193391722422,0.0074140093086908975
2.121451784910632,-8.45046676400518e-05,-0.007829096413539223,0.007368195029203003
2.35428641432242,-0.00010286683588423168,-0.007649505749352899,0.0072757647619095065
2.612675225563332,-0.0001330963653963263,-0.007476525797186256,0.007181269147530417
2.8994228538828812,-0.0001744271807622208,-0.007436242712738306,0.007109686907369445
3.2176417502507353,-0.00019050835091683616,-0.007425448062511407,0.007067477545112329
3.5707859649004625,-0.00016363671861712803,-0.007338595396071416,0.0070470463572531224
3.9626886387014784,-0.00012578577469999608,-0.007224829998271501,0.007058339925988563
4.397603609302721,-0.00010713017674813288,-0.007155697550989274,0.0071100673310348465
4.880251583654434,-9.045185307925142e-05,-0.00714424364466795,0.0072270232145185895
5.415871378079476,-4.653696737541204e-05,-0.007167431829928615,0.007407799511914732
6.010276782070388,7.904147307926739e-06,-0.007249851099926369,0.0076011055998641
6.669919663030129,2.8200514318976694e-05,-0.007426219611337302,0.007720819726838725
7.401959996915652,9.308621500617427e-06,-0.007654322532650476,0.007751444879953673
8.214343584919439,-1.1291357616896361e-05,-0.007821520719297327,0.00775196389275149
9.115888299750837,-1.0719650289572098e-05,-0.007892969793737874,0.0077757307533646985
10.11637979766207,-2.9450611684317863e-07,-0.007965185199964775,0.007853301920151412
11.226677735108158,3.4952694747930446e-06,-0.008080101476872261,0.007955455011409863
12.458833642950081,-2.498185935375278e-06,-0.00811602669257336,0.007974936089753729
13.826221737646593,-1.3353722562050099e-05,-0.007800672605645137,0.007678515719711355
15.343684089300131,-2.1508399076361002e-05,-0.00680950675197877,0.006734165836214255
17.02769172225898,-2.0843592039379178e-05,-0.004969644805994026,0.0049355945804750185
18.896523396912116,-1.313931743694374e-05,-0.002760302960478757,0.0027483186242993236
20.970464013232306,-5.47121005327777e-06,-0.0010891448666170902,0.0010857305548513457
23.27202478960412,-1.510613928939551e-06,-0.00029409033934323314,0.00029332293643079634
25.826187606826746,-2.7687273584838263e-07,-5.341399352395581e-05,5.328632152848812e-05
28.66067616948256,-3.3700536307874966e-08,-6.477476628628285e-06,6.462575663839324e-06
31.80625692794119,-2.7245131976925147e-09,-5.228860010624887e-07,5.217022410458983e-07
35.297073027306574,-1.463060526296808e-10,-2.8061880157666218e-08,2.799876669428081e-08
39.17101490809261,-5.218759206076786e-12,-1.0007255894287066e-09,9.984808812294866e-10
43.47013158125035,-1.236539426980124e-13,-2.37089605667465e-11,2.365583706134784e-11
48.241087041653735,-1.9461938674044175e-15,-3.7314116254837687e-13,3.723054504293202e-13
53.535666774107185,-2.034709120331944e-17,-3.901057172512222e-15,3.8923216546504295e-15
59.411339849650396,-1.413048079330704e-19,-2.7091562786257302e-17,2.703090184437798e-17
65.93188271333541,-6.51853546686836e-22,-1.249758193282984e-19,1.2469599308946867e-19
73.16807143427206,-1.9974764051489048e-24,-3.8296329272559203e-22,3.8210583153703783e-22
81.19844993184009,-4.0658544977436424e-27,-7.795197686996972e-25,7.777744192861641e-25
90.11018251665037,-5.4974408403990674e-30,-1.0539882960136418e-27,1.0516284144866825e-27
100.0,-4.937508498866735e-33,-9.466360707800773e-31,9.445165527183634e-31
