tau,gamma,gamma_lo,gamma_hi
1e-07,1.3901298878665115e-05,-4.634079305986506e-05,0.0001109182123687565
1.1097524964120721e-07,7.10431131950988e-05,-0.00023691611851164453,0.0005661721891911666
1.2315506032928263e-07,0.00024479103460008377,-0.0008170373272169711,0.0019451754411741915
1.3667163564620074e-07,0.000580424973616839,-0.0019405882897973693,0.004580618007340101
1.5167168884709241e-07,0.0009896614377751113,-0.003315935434378402,0.007691296180061474
1.6831803533309585e-07,0.0013148727768244831,-0.0043945192464923885,0.009909335078745593
1.867913599020781e-07,0.0015164180222201362,-0.004950592946678562,0.010845939219552049
2.0729217795953698e-07,0.0016628485084544543,-0.00509743875647771,0.011055683910980444
2.300430119772917e-07,0.001800527049668639,-0.0050651519782557745,0.011052551721162818
2.5529080682395163e-07,0.0019153653270733365,-0.0051087554756020555,0.01101233810948002
2.833096101839324e-07,0.001993445068086357,-0.005301678293416726,0.010918516026281664
3.1440354715915e-07,0.0020642220262712396,-0.005450500005741245,0.010727574955203467
3.489101213406774e-07,0.0021510103772637654,-0.005364245397858984,0.01041412575406101
3.872038781812557e-07,0.0022334465825317377,-0.005146543438689228,0.010069818931764724
4.2970047043208437e-07,0.0022736318043081612,-0.005009545086255141,0.009800023488547279
4.768611697714474e-07,0.002279715306886381,-0.005007182952046389,0.009624347161554862
5.291978735958437e-07,0.0022881968451151577,-0.005044288778672648,0.009494953420889199
5.872786613189477e-07,0.0023147231957519588,-0.00500766266612747,0.009395899316552707
6.517339604882421e-07,0.002349403738281881,-0.004826477782549906,0.00936275949368124
7.232633896483533e-07,0.0023863055816389527,-0.004564495097019652,0.009420687599349518
8.026433522257174e-07,0.0024392468224288975,-0.0044478735967157495,0.009575855622721275
8.907354638610439e-07,0.0025184969473453145,-0.004582705734607506,0.009796309850455555
9.884959046625586e-07,0.002622700669594073,-0.00477972125188604,0.010028037637224376
1.096985797892384e-06,0.0027369111009017304,-0.004795987079738975,0.01018816872009357
1.217382727739662e-06,0.002843955323270892,-0.004626405079180605,0.010224710065600757
1.3509935211980278e-06,0.0029239412601385645,-0.004396370467847052,0.010116253253421912
1.499268432786047e-06,0.0029768696914816116,-0.0041976782705328035,0.009966038693162578
1.6638168860761274e-06,0.0030098826489704297,-0.0040726606668386464,0.009942755136961327
1.8464249428955464e-06,0.0030174524225651486,-0.004043831189360286,0.010094339638767913
2.049074689815846e-06,0.0029826549681723938,-0.004127446277838802,0.010317919057323563
2.2739657523579273e-06,0.0029027809066249416,-0.004298407929589323,0.010460389165138763
2.523539170434766e-06,0.0028125063449235908,-0.004477112653846687,0.010397815041014424
2.800503894183631e-06,0.0027410962732127243,-0.00458585837579467,0.010108576140497354
3.107866187782014e-06,0.002696945686104698,-0.004614211745158625,0.009806394839398718
3.4489622604057595e-06,0.0026703236406070397,-0.004589899021976898,0.009704419328063364
3.827494478516315e-06,0.002650037532368059,-0.004590208308477321,0.009788092424085803
4.247571552536894e-06,0.0026223138152153672,-0.004701330663211975,0.009910821113430507
4.713753134116729e-06,0.002580790625922952,-0.004955955826447135,0.010049374797131682
5.2310993080562585e-06,0.002525191022987589,-0.005324574932275868,0.010270111016512116
5.805225516094895e-06,0.0024605215844255707,-0.00573533633235137,0.01050974432394977
6.44236350872137e-06,0.0024015506158979643,-0.006076534730294096,0.010554964703636146
7.149428986597577e-06,0.0023603347925336446,-0.006255894908998255,0.010340895817819206
7.934096665797492e-06,0.002351547607542934,-0.006250669512879711,0.010150540671924443
8.804883581643465e-06,0.0023888749953229873,-0.0060831062206826506,0.01025158114292257
9.771241535346501e-06,0.0024911478194498933,-0.005862909040219497,0.010634891136031381
1.0843659686896109e-05,0.0026681683207922064,-0.005693803981218384,0.01113786564919314
1.2033778407775906e-05,0.0029070115094303067,-0.005586557472389644,0.01166576385984536
1.3354515629298974e-05,0.003181006507557961,-0.005492483009604333,0.012192030855684065
1.48202070579886e-05,0.0034926088574643403,-0.005409043181754878,0.01278475106740791
1.6446761779946626e-05,0.0038661158601505335,-0.005390560135914842,0.013557552286278316
1.8251834943190462e-05,0.004317039777726157,-0.005474618856975397,0.014545285008260312
2.0255019392306664e-05,0.00484331924895969,-0.005643607165013713,0.015678290589789777
2.2478058335487252e-05,0.005460016443129363,-0.005770481828233937,0.016903674856995156
2.4945081352303165e-05,0.0062271499157766416,-0.0056137401114598395,0.01828982072801308
2.7682866303920665e-05,0.007207682754174831,-0.005040025921748094,0.01991195606095776
3.072112998861759e-05,0.008437601705568952,-0.004325793061841195,0.02182296199456028
3.409285069746814e-05,0.009909183372910123,-0.0038575144902611865,0.02401824754895326
3.783462617131933e-05,0.011589812014709327,-0.0036557352643576844,0.026534639816505622
4.1987070844439056e-05,0.013434344892744981,-0.0034427638446170306,0.02943142658486771
4.659525668664687e-05,0.01553422548322457,-0.0029538974839202043,0.032915798003706184
5.170920242896755e-05,0.018075644346323177,-0.0020002219438853865,0.037241454077319144
5.7384416483024044e-05,0.02117219908316129,-0.0004443217411420519,0.04242314323854781
6.368249944718586e-05,0.024769473845531267,0.0017532695866970195,0.04809705814303972
7.067181273927492e-05,0.028783576888898776,0.004497878258142318,0.05394607426751735
7.842822061337681e-05,0.03321153753581159,0.007431946103071664,0.06009245103955459
8.703591361485166e-05,0.03809077968362079,0.010218844962596145,0.06682089260321938
9.658832241158708e-05,0.04361433981662934,0.012916627796104469,0.0746365172580431
0.00010718913192051276,0.04994056613460935,0.015868022737110677,0.08395484317643513
0.00011895340673703195,0.057184561393626744,0.019634300188130754,0.09505950871276068
0.0001320088400831418,0.06528914500595256,0.024734158949522588,0.10785418073041056
0.00014649713983072864,0.07428325317667979,0.031094239433573572,0.12206903420820811
0.0001625755666443795,0.08421186115796132,0.03794484458932295,0.13710395991717297
0.00018041864093920718,0.09526333690409461,0.04488906076241001,0.15261598219799366
0.00020022003718155845,0.10782678678205986,0.05233659487846903,0.16889461641923084
0.0002221946860939524,0.12229135171765804,0.0609963608111462,0.1867210992704298
0.0002465811075822604,0.1391369948654554,0.07163392997381024,0.20786573616512252
0.0002736439997074672,0.15853846909086974,0.08479292225249539,0.2334829857558268
0.00030367711180354605,0.1805087838290302,0.10068712172258265,0.26300153451727176
0.00033700643292719284,0.2045036936278753,0.11909707857103358,0.2942462366858307
0.0003739937302478798,0.23020040514591728,0.13989673404244937,0.32612307157407805
0.0004150404757850477,0.25689325824924675,0.1626291241525153,0.35773525547074003
0.00046059220411451084,0.284004884474695,0.18683595457791735,0.3880653516152103
0.0005111433483440171,0.31079619664987934,0.2116688839419065,0.41580667647749636
0.0005672426068491978,0.3364984203084567,0.23622348579126062,0.44116879871849457
0.0006294988990221888,0.36087997220584817,0.2597579679267043,0.4677050586411616
0.0006985879746785249,0.38315792471730786,0.2809685656425937,0.4969550622560379
0.0007752597488629464,0.4030481442128757,0.29883676352269106,0.5258633556901092
0.000860346441668451,0.4195122327219481,0.312442043300924,0.5487118237643571
0.0009547716114208065,0.4324647373069752,0.3236261278321044,0.5642941881805061
0.001059560179277617,0.44153743103292986,0.3346213048308652,0.5733017561652507
0.0011758495540521582,0.4468231625482633,0.3448297723980721,0.5761921039208641
0.0013049019780144017,0.44862095450239475,0.3509017453236224,0.5726735328239904
0.001448118227674533,0.4471613521262231,0.35152674724070415,0.5634124458588332
0.0016070528182616384,0.44351211958729686,0.34947216948087056,0.552175829962155
0.0017834308769319094,0.43811122864273466,0.34663609937667156,0.541836556571784
0.0019791668678535573,0.43209816694888203,0.34280573261257513,0.5346960416863146
0.002196385372416547,0.4257036183927188,0.3363351497050963,0.5306115930650505
0.002437444150122222,0.4194076539842311,0.32725291796872175,0.5279207488289283
0.002704959730463137,0.4130425092772569,0.3161707024266563,0.5238454267121878
0.0030018358135755923,0.4069339652243893,0.3046464348866458,0.5183761154175337
0.003331294787934677,0.401424553468095,0.2945900693243892,0.5128679593953508
0.0036969127071950323,0.3967658085358695,0.28724408890674796,0.5077009716164569
0.00410265810582719,0.39335424092503896,0.28345661703057135,0.5023525841881868
0.004552935074866948,0.39115156247964616,0.2833394404935268,0.49663178381882367
0.00505263106533568,0.3904749317803659,0.2867037352663903,0.492651387295366
0.005607169938205458,0.3908914598467917,0.2923129131248269,0.4917636864709465
0.006222570836730231,0.3921819070436589,0.2982233011611978,0.4945803023543337
0.006905513520162331,0.39340192706982485,0.30195271455220835,0.4995818462186816
0.007663410868007463,0.3942652261320889,0.3027457007197128,0.5042367080498549
0.008504489341802686,0.3941498472199707,0.30064233855468386,0.5054042782582914
0.009437878277775391,0.39296804198155805,0.2972673991390241,0.503774952318818
0.010473708979594508,0.3905719573163528,0.2946937603221807,0.5024237311611697
0.011623224686798541,0.3864135607737937,0.2927455291482383,0.5026181662789995
0.01289890261253308,0.3798767606269959,0.2889660281470181,0.5031620491684248
0.014314589375234785,0.37009198307745217,0.2810128188633823,0.5011204772685282
0.015885651294280528,0.35731013382347093,0.2687751709613955,0.49367766655955714
0.01762914118095948,0.34116694372675294,0.2520118946003259,0.47774577039791377
0.01956398343517065,0.32180226775653104,0.23070818569744142,0.45313245705666855
0.021711179456945052,0.2990471062655626,0.20514055147976254,0.4205825270982287
0.02409403560239527,0.27395771562525706,0.1781918592129914,0.38376080218205366
0.026738416158399492,0.24795493895186047,0.1533605584930309,0.3473613327551292
0.029673024081888724,0.2217019148455916,0.1301129937747641,0.31399644098956736
0.032929712550971546,0.19561888866180246,0.10541886063665294,0.28451500426192633
0.036543830709572546,0.1700090966839733,0.07956449284649943,0.2573609135055508
0.040554607358408275,0.1460829971710973,0.058091768723621776,0.22994570878289178
0.04500557675700498,0.12447742428065484,0.04418600367056088,0.20077185178232304
0.0499450511585514,0.10543671852201852,0.03495626242997709,0.17203112559424674
0.05542664520663107,0.08881387386292612,0.026458208469773356,0.14620846394503073
0.06150985788580504,0.07453069911079259,0.01804001879049429,0.12426679374187011
0.06826071834272393,0.06254587430280362,0.010986876405532716,0.10610251101666325
0.0757525025877192,0.05266328529512899,0.006131173849332235,0.09119881227436558
0.08406652885618333,0.04469737892634195,0.0036485872566414364,0.07910941105241293
0.09329304026284696,0.038393792064250185,0.002982325238152772,0.06938073554057383
0.10353218432956637,0.03356084274974417,0.003098731810376813,0.06171529840767475
0.11489510001873086,0.0298926752434625,0.0032796582600070736,0.05564396491794513
0.1275051240713013,0.027027310642398047,0.0033020699818139612,0.05063132653557177
0.1414991297434576,0.02466490009788087,0.0031453057004736046,0.04622625644196684
0.15702901247293774,0.022735430774580668,0.002842558490096237,0.042376567408396515
0.17426333860096507,0.021198056532811364,0.0024609533774815357,0.03908536490791273
0.19338917504552322,0.019942317836506896,0.0021590646346749663,0.036295717720990155
0.21461411978584058,0.018817170329394516,0.002096659702687233,0.03392399513556547
0.23816855519761607,0.017787128241838836,0.0022533193712981564,0.03206048874169472
0.2643081486974108,0.016902186936714192,0.002482567164487075,0.030865362853730705
0.29331662783900486,0.016171372951584356,0.002706371458007953,0.030162440577862878
0.32550885998350565,0.0155576918625368,0.002924945511315718,0.0294630227110362
0.36123426997094304,0.014986146324526243,0.0030871485582156274,0.028478430206971835
0.40088063288984643,0.014402147586904319,0.0030461831479982418,0.027408490299956536
0.4448782831127585,0.013764167131097736,0.0027205807645034065,0.026469187297081826
0.4937047852839004,0.013120796247951887,0.002249239363973857,0.025715724570533692
0.5478901179593945,0.012511486339440993,0.0017954580746982352,0.02504770892933985
0.6080224261649427,0.011937664228158815,0.0013492650036179099,0.02437030403382073
0.67475440531107,0.011359783931456915,0.0008229319584041431,0.02357694990437144
0.748810385759003,0.010754037023628623,0.0002511343764105188,0.022631918128114624
0.8309941949353403,0.010117798515398211,-0.00023025326086278033,0.02156161381260943
0.9221978823334341,0.009449827270147858,-0.000619021824717234,0.02043098151624172
1.0234114021054528,0.008769596746076648,-0.0010694249267775896,0.019377788073677668
1.135733358343105,0.008082229545821952,-0.001661855146409378,0.018463486444499987
1.2603829296797273,0.007408459947246609,-0.0022863669340465586,0.01768880421549915
1.3987131026472386,0.006749785632139995,-0.002830199895028763,0.016990202441115335
1.552225357427048,0.006107444054750408,-0.003334776159383632,0.016321014792857858
1.7225859653987874,0.005470514431518288,-0.00388611607102811,0.015604030034475446
1.9116440753857036,0.00483281006131863,-0.00448808231024766,0.014770856998734145
2.121451784910632,0.004193734485416082,-0.005061322996260447,0.013776197801186649
2.35428641432242,0.0035593361240951384,-0.0055310155008528785,0.012709585738493937
2.612675225563332,0.0029509368986558124,-0.0058458718670724216,0.011770042602291532
2.8994228538828812,0.002374258831608599,-0.006052132472267105,0.011004634665440933
3.2176417502507353,0.0018300729185226567,-0.006307540200934195,0.010292181337162356
3.5707859649004625,0.001308701900304368,-0.006720433071517904,0.009534839153387514
3.9626886387014784,0.0008049448764459624,-0.007277337950242623,0.008813731650207364
4.397603609302721,0.00032121083282438947,-0.007905885948484981,0.00821155519251131
4.880251583654434,-0.0001230810817431557,-0.008553255163543105,0.007697837907459139
5.415871378079476,-0.0005053409982506554,-0.009183628527068282,0.007193019575050315
6.010276782070388,-0.0008362800824586219,-0.00982943311978633,0.006716425956452237
6.669919663030129,-0.0011364286979795564,-0.010506834677163174,0.006380878700707601
7.401959996915652,-0.001401183823058627,-0.011106536068205039,0.006313140772169269
8.214343584919439,-0.0015926326273366029,-0.011409613931761754,0.00659731997220894
9.115888299750837,-0.0016851378668618063,-0.011370293006815796,0.007097365780444391
10.11637979766207,-0.0016842160777388072,-0.011224717602950601,0.007423050237073355
11.226677735108158,-0.0016061700817830314,-0.011136718638713577,0.007347732796923046
12.458833642950081,-0.0014792179266801158,-0.01100382695631768,0.0070892360640905224
13.826221737646593,-0.0013119063744591961,-0.010482870209066988,0.006804537966497022
15.343684089300131,-0.0010788911747189006,-0.009119677915518305,0.006135480496071088
17.02769172225898,-0.0007590459874818301,-0.006649169079276599,0.00462679345795208
18.896523396912116,-0.00041373133329648235,-0.0036923323934777577,0.002620917618594109
20.970464013232306,-0.0001618563040821203,-0.0014568275477414832,0.0010439455136784651
23.27202478960412,-4.354531591295495e-05,-0.0003933671653227288,0.0002830427436547457
25.826187606826746,-7.896981036538437e-06,-7.144485280596356e-05,5.1495297707726277e-05
28.66067616948256,-9.57071998062548e-07,-8.664056398782495e-06,6.249164484538327e-06
31.80625692794119,-7.723909937140156e-08,-6.993945667590525e-07,5.045992198094659e-07
35.297073027306574,-4.1447939610309876e-09,-3.753461247030285e-08,2.708359996903113e-08
39.17101490809261,-1.4780303948973375e-10,-1.3385362854552896e-09,9.658838604421946e-10
43.47013158125035,-3.5016574571692563e-12,-3.171229310340385e-11,2.2883930947015864e-11
48.241087041653735,-5.511012365906287e-14,-4.991008256915542e-13,3.6015927045887854e-13
53.535666774107185,-5.761550309916552e-16,-5.217920302752343e-15,3.765347804263066e-15
59.411339849650396,-4.0012033437754105e-18,-3.6236745325420665e-17,2.6149138508606373e-17
65.93188271333541,-1.8457903192669693e-20,-1.6716336999503138e-19,1.2062839245565478e-19
73.16807143427206,-5.65605262358454e-23,-5.122385668124585e-22,3.696415523117898e-22
81.19844993184009,-1.151286453464031e-25,-1.042658909251497e-24,7.524034986715328e-25
90.11018251665037,-1.5566538016942898e-28,-1.4097785985202932e-27,1.0173244348633288e-27
100.0,-1.398103400526253e-31,-1.266187943638879e-30,9.137065586801452e-31
