tau,gamma,gamma_lo,gamma_hi
0.006737946999085466,6.116810410872992e-05,1.7724243254733925e-06,0.00021642980100238781
0.007103013268856361,0.000128470833081929,3.7892410676030426e-06,0.0004541006778019626
0.007487859062173905,0.0002441339746394732,7.397207920348249e-06,0.0008615552926393917
0.007893556046250663,0.00042089767209845344,1.3273214436499551e-05,0.001481700996058705
0.00832123395191293,0.0006610236046197559,2.207959667179469e-05,0.0023182787690705347
0.008772083719524362,0.0009513018158945126,3.439317190110798e-05,0.003317530061177394
0.009247360815357767,0.001264885300001215,5.068080838305933e-05,0.004374879493790229
0.009748388727650104,0.0015706076346559325,7.124280822655725e-05,0.005369524210639196
0.010276562652075886,0.0018446263234015673,9.601084498207625e-05,0.006208433661573592
0.010833353376901932,0.0020770125528879195,0.000124233656004259,0.006852248068634918
0.011420311378642276,0.0022701716720532257,0.00015430953981351557,0.007310368646914823
0.012039071139618275,0.0024326501280736946,0.00018402471024094827,0.007617629748445119
0.012691355699446872,0.002574008730134328,0.00021110481408624456,0.00781466178157914
0.013378981453131423,0.002702743230689822,0.00023364215259549594,0.007941155294249474
0.014103863209116094,0.0028254599858350683,0.000250123318740253,0.008034937322262983
0.01486801952138893,0.0029461147111198055,0.0002593697580765998,0.008128898385629394
0.015673578310481672,0.0030663521142104203,0.0002609810450505794,0.008247087868301514
0.01652278278901886,0.0031872787021020067,0.00025634682602399043,0.008404050122334717
0.017417997708317062,0.0033106877960827788,0.0002494655856816763,0.008606109397086618
0.0183617159434288,0.0034383893990699746,0.00024663452811570066,0.00885179934687272
0.019356565434968317,0.0035713199280573223,0.00025481151654995843,0.0091334158222382
0.02040531650704995,0.0037104260410098866,0.0002794052762749452,0.009442233215762041
0.021510889581717107,0.003858189971375163,0.0003226448447266842,0.00977365276193818
0.022676363311343803,0.004018397709776356,0.00038332579235145973,0.010127022344287528
0.023904983151655027,0.004194655441829774,0.00045788367387370897,0.010502871031026335
0.025200170399238803,0.004390274705566814,0.0005418613316300141,0.010905117310782718
0.02656553171871635,0.004609718382268503,0.0006306050910876635,0.011348189653702746
0.028004869186100477,0.004859042744553938,0.0007189022640555404,0.011860469343776107
0.029522190876309574,0.0051446370326516545,0.0008005619599827722,0.01248005969423726
0.031121722024319735,0.005472794515347969,0.0008690876030651553,0.013249222272014794
0.03280791679103535,0.005851338694465375,0.0009191745823391322,0.014213525665876546
0.03458547066664211,0.006290926116418064,0.0009475578408687264,0.015423369993581269
0.0364593335459814,0.006804544171087986,0.000952559565314473,0.01693474707069024
0.03843472351235704,0.00740791861674624,0.0009336326528144152,0.018812659403264747
0.0405171413681574,0.008123240358970623,0.0008924900142812261,0.02113983573118155
0.042712385952755796,0.008983663066108278,0.0008352930267465909,0.024026147451308103
0.04502657029034464,0.010035318063413868,0.0007734231787298863,0.0276176040697128
0.04746613861266957,0.011339398178700215,0.0007211390912829604,0.032116703482450756
0.05003788430406602,0.012980276876564152,0.0006911858777768383,0.03782532100892993
0.05274896881876944,0.015083735128591978,0.0006914569955265435,0.04520638251258966
0.055606941623177565,0.017852919064300678,0.000726030226898559,0.0549621931726484
0.05861976121859689,0.02164283204050287,0.0008038103984692946,0.06815232913845456
0.061795817303015234,0.027099957080781324,0.0009600061389998258,0.08638164859073971
0.06514395413361329,0.035374159817987166,0.0013025130747278,0.11205410183757372
0.06867349515507169,0.04837111513392978,0.0021106844046900105,0.14863613121311503
0.07239426896225575,0.06897811111734278,0.004038144599666977,0.20081748973897254
0.07631663666957506,0.10119134189002021,0.00848598343604272,0.2743939993127013
0.0804515207632321,0.15011859641141806,0.018163221065471656,0.37572672713467925
0.08481043551670452,0.221871817779496,0.037660552341675424,0.5108819471435635
0.08940551905415753,0.3232086447803273,0.07352670244849836,0.6847830003840149
0.09424956715107226,0.4603361946068724,0.13308039404182279,0.9003268134682898
0.0993560688662139,0.6360442021896637,0.2214873754149554,1.1565481513410132
0.10473924410416283,0.845264051854341,0.3377962754040054,1.445050840284727
0.11041408321300714,1.071365943934579,0.4721291521259747,1.7462469374438612
0.11639638872746379,1.2869968606524322,0.6065840403104547,2.029550217176971
0.12270281937366895,1.461311834173004,0.7204737312880677,2.260463136570162
0.1293509364581752,1.5704043711945455,0.7972583855223035,2.411705320301849
0.13635925277033487,1.604271853978756,0.8289005374551515,2.4707952995408964
0.1437472841342458,1.566128482032072,0.8154277577179044,2.439093470215018
0.1515356037538138,1.466475251243582,0.7615548136079796,2.325391557712434
0.15974589950226564,1.3181523723000816,0.6741818823223105,2.1415909672852504
0.1684010343156449,1.1357055482339184,0.5625065283768867,1.9037218263677314
0.17752510985846495,0.9366700295610378,0.4389428492563179,1.6341639864869142
0.1871435336388085,0.7405246543002832,0.31804468396692503,1.3594933128686928
0.19728308975976602,0.5644673239717968,0.2129597043478426,1.1038418214662995
0.20797201350423158,0.4190655600084558,0.13167022183469115,0.8827149106279942
0.2192400699607512,0.3069414197036003,0.0755551167787904,0.7013784286533148
0.23111863690937004,0.22475327564503852,0.040825177763725,0.5574980768033589
0.24364079219828674,0.1664389621208776,0.0214122089271638,0.44505741338022975
0.2568414058546314,0.12575806832118178,0.01150300381026585,0.3573266584339307
0.2707572371858648,0.0975192725561185,0.006811668587250306,0.28845651081606327
0.28542703714219186,0.0778500021149175,0.004716037690394678,0.234062744405891
0.3008916562250374,0.0640278677633142,0.003831550393570365,0.19112816259329346
0.3171941582420718,0.054196810514725795,0.0035057469754249428,0.15753390768827055
0.3343799402255558,0.04711016165629343,0.003449916351678413,0.1316005275630148
0.3524968588479384,0.04193788555830283,0.0035312659361696054,0.11186619791074831
0.37159536368673307,0.038126219395417035,0.003677491251731486,0.09705504986500454
0.39172863770976835,0.03529755214927404,0.00384379240783922,0.08608881125140909
0.4129527453720206,0.03318933063119238,0.0040074534654460205,0.07807644229343205
0.4353267887364277,0.03162071595156306,0.0041675492850864896,0.07228836217232965
0.4589130720534265,0.03046617423164441,0.004338631190065884,0.06812643326812674
0.483777275257516,0.02963096349322267,0.004538149370943981,0.06510347277537276
0.5099886368639759,0.02903962747905656,0.004772935954010741,0.06285010235297386
0.5376201467750433,0.028637163633778207,0.0050293009184354575,0.061134596667332355
0.5667487495324537,0.028386727583325822,0.005270159354142316,0.0598520891503057
0.5974555585823343,0.0282595207673139,0.005443570329551997,0.058972171541208394
0.6298260821491041,0.02823236749279843,0.005503962625394338,0.05848702731819948
0.663950461347367,0.028299590581462163,0.005437095093962366,0.0583936901580305
0.6999237211948623,0.028481496550594926,0.005272304946193477,0.05869292152826958
0.7378460352254496,0.028814081216004477,0.005072288301949404,0.059379561837646616
0.7778230044390037,0.029330675636949535,0.0049070882078524935,0.06043767214858719
0.8199659513649863,0.030053555915017956,0.0048287464031544144,0.06185963948976582
0.8643922300585688,0.03099394902192688,0.004858602000648312,0.06366840197016155
0.9112255528925503,0.03215043296679993,0.004988802803022145,0.06591256853322106
0.9605963350550639,0.03351195783073636,0.005193154420084443,0.06864921275064277
1.0126420577123871,0.03507700469734345,0.00544044958074718,0.0719503317811936
1.0675076508481538,0.036877531553993516,0.005703559062050282,0.07592566957889382
1.1253458968450323,0.0389832929307585,0.005961822975531247,0.08072162140824876
1.1863178559327128,0.04148609757943605,0.006202223064758914,0.08649185385651795
1.2505933146869508,0.04448803610428885,0.006427834427282409,0.093374554000597
1.3183512588285655,0.048103142887688896,0.006674159348231688,0.1014835735608702
1.3897803716389856,0.05245677714125874,0.007023471683127232,0.11088591216134673
1.4650795593802837,0.0576770436779925,0.007607651758267796,0.1215756032125975
1.5444585051827886,0.06389526333026314,0.00860114936452866,0.13349724523657705
1.6281382529426836,0.07125764389429275,0.010214512078815246,0.14661490515101008
1.7163518228555608,0.07992106728753809,0.012695906214297656,0.1609386277164984
1.8093448602999653,0.09002440591095408,0.016335131103906938,0.1764739253007152
1.9073763198778606,0.10166859330839949,0.021450384385292117,0.19319562289584788
2.010719186516862,0.11491912199995884,0.028337432844455807,0.21113280700957843
2.1196612356422295,0.12978507062878183,0.03718939964287679,0.23047077806719393
2.2345058345354687,0.14615215284934466,0.04803898590155856,0.25151262699717086
2.355572787111065,0.16375092966678054,0.06077641790755096,0.274520580613639
2.483199224463749,0.18224375541854626,0.07522185035073711,0.2995919676702622
2.6177405436661707,0.20135371095453602,0.09115489530895038,0.32659302453662864
2.7595713974312646,0.2208685071914097,0.10824981598276921,0.35503723894122
2.9090867373951204,0.24051908003232897,0.1260127816398023,0.3839649027225323
3.0667029139255924,0.25993365090357207,0.143865811774669,0.41209238649719315
3.2328588355192625,0.27876492521645946,0.1613553875686643,0.4382763718052244
3.4080171910152477,0.2968052039074921,0.17827932996471527,0.4618832534360184
3.592665738029329,0.31390107268919737,0.19460026813020972,0.4826902797771694
3.7873186611962937,0.32980190783406677,0.2102723549560763,0.5005411035398383
3.9925180040026884,0.3442118961839525,0.22518145059168257,0.515282056139152
4.208835178197177,0.3570059787455223,0.2391832399327563,0.5270315545738207
4.436872554981753,0.36829088986048397,0.2520732493369915,0.53630297173369
4.67726514241468,0.37821413187348313,0.26349597563644844,0.5437408210212183
4.9306823536961755,0.3868110251054102,0.2730066835722688,0.5498410346279866
5.197829871261,0.3941032899645232,0.280345421604777,0.5550194584181535
5.479451611868721,0.4002433523560608,0.2856523963720842,0.5598067032367239
5.776331798163825,0.4054300655878476,0.2893695714649667,0.5647594742508578
6.089297142474323,0.4097140592853283,0.2919527448496229,0.570163294142677
6.4192191489299155,0.4129986556594987,0.2937080468284538,0.5759106175553077
6.767016540310378,0.4152088717156296,0.29481344931402226,0.58158681486248
7.133657816382208,0.41632275834421134,0.29532957056266756,0.586475716027181
7.520163950847523,0.4162210230073752,0.29513841381176,0.5895114470848181
7.927611234415363,0.41466354598018257,0.2939828645147033,0.5895588949927884
8.357134271912493,0.4115201915388664,0.29166672038037483,0.5860356508748444
8.809929141779493,0.4069482404605707,0.2881931045840138,0.5792784619717969
9.287256726750387,0.40125108680997174,0.28366825965629566,0.5702310801528881
9.790446224990665,0.3946203524953331,0.2781316720992201,0.5598253085899693
10.320898851470968,0.38710154682235554,0.271557764900248,0.5486853478591418
10.88009173988351,0.3787340184391967,0.26397921044283557,0.5371988581160527
11.469582055966955,0.3695656810557826,0.2554968544468022,0.5255490852143127
12.091011333693753,0.3595244996629463,0.246155790027969,0.5136162641319573
12.746110046394861,0.34842391602841216,0.23590370786285006,0.5010529865926675
13.436702425551045,0.3361709576536705,0.2247114891797745,0.48759024489214015
14.164711540669245,0.3228916273154649,0.21266528054579936,0.47319863275641255
14.932164654389897,0.30879381175950565,0.19988447478684707,0.4579045619686761
15.741198867737497,0.2939834688903594,0.18639688879950803,0.4415796702282755
16.594067071234324,0.27849310354170476,0.1721580892213736,0.42402470017465826
17.493144218449313,0.2624275504665612,0.15716742981920975,0.4051704077328039
18.440933939451924,0.24597125722351137,0.14150626936654753,0.3850585880277974
19.440075512587047,0.22926637563259786,0.12529619781834764,0.36368727521658867
20.4933512139851,0.21239447565730282,0.10874053258737572,0.34107107689291394
21.603694065273455,0.19551686849247552,0.09228542592413139,0.31752263547663073
22.774196001063633,0.17896112324278904,0.07670373550688213,0.2937651478998069
24.008116478958158,0.16311261086070167,0.06291858298052784,0.27067165673674104
25.308891556053304,0.14824461646770512,0.051640689813666325,0.24889919933653631
26.680143457212324,0.13447415636522367,0.04307511645419584,0.2287536564886665
28.125690661753833,0.12182874419722581,0.036878387765963784,0.21027325950265566
29.649558536643646,0.11029094201158937,0.03235028135039062,0.19332279430694066
31.255990545799495,0.09979145417941918,0.028725371340133535,0.17764851125914274
32.94946006672302,0.09022668880165967,0.025426361240628696,0.16298520550587844
34.7346828473647,0.08151840840642395,0.0221891190311503,0.1491956400254229
36.61663013790941,0.07364329219251259,0.019033501284176482,0.13630412935335617
38.600542534050476,0.06659742977288285,0.016127659947113075,0.12439590558024786
40.69194457030146,0.06035201368847571,0.013640194263314741,0.1135183065080153
42.89666010398265,0.05485344029036695,0.011655908637074339,0.10368250924322645
45.22082853272161,0.05004597068317196,0.010167501017471096,0.09490631560870157
47.67092189062879,0.04587397321826097,0.009107565021607509,0.08720651696830883
50.253762870754336,0.04226875252850996,0.008382382362107128,0.08055526450799397
52.97654382401316,0.03914917773858556,0.007890905144319093,0.07486699325331153
55.84684678748435,0.03643492059917314,0.007531073540259885,0.0700207293606032
58.872664597856144,0.034050961128632755,0.0072039811849281465,0.06587620313435859
62.062423148810836,0.031924711552548266,0.006826036921700481,0.06227890381830751
65.4250048543295,0.029994085445038468,0.006349287298676173,0.059080967955296146
68.96977338325308,0.02822354705058833,0.005776601438554482,0.05617111087830294
72.70659973397773,0.026605369599231984,0.00515660122994055,0.053478558898976736
76.64588972189405,0.02514156490214744,0.00455808306351366,0.05095291928357009
80.79861295611386,0.023827967607364133,0.004040046355137608,0.048561278944184876
85.17633338617287,0.02265421912747928,0.003634280127329893,0.04631389574982669
89.79124150377488,0.021608626119114707,0.0033446882556264633,0.04427717488791942
94.65618828924686,0.020676081069596345,0.0031562753423464247,0.04254195903289303
99.78472099723308,0.019835890005608158,0.0030451222176765234,0.04116968545217958
105.19112088128277,0.01906855997311345,0.002984697626634195,0.040156858432245916
110.8904429623799,0.01836382755470352,0.0029479699452498887,0.03942796823738964
116.89855795215551,0.01771812409172232,0.002907955193873017,0.03884903867324338
123.23219644752831,0.017126101039991282,0.0028406051867941122,0.03826589438154155
129.90899551983924,0.016579283906565555,0.0027310434710245504,0.03756597535367199
136.94754782821292,0.01607166500818333,0.0025789645838719152,0.03672848459950236
144.36745339391442,0.015600880298274066,0.0023978541741469577,0.035820792439923414
152.18937417987405,0.015163073070763968,0.0022078731210534723,0.034945775153967074
160.43509162736297,0.014751688176067547,0.0020278363538663467,0.03418763141835734
169.12756731004515,0.014363768473724569,0.0018712803215368203,0.03358860782378992
178.29100687430494,0.014003885259637638,0.001746669630039371,0.03314809716268101
187.95092744389908,0.01367897560620469,0.0016586778991874906,0.0328285958262839
198.13422867663894,0.013391362354158444,0.0016085320819402738,0.03257234133876934
208.86926767096958,0.013138533441278414,0.0015935981440360176,0.032329709934539305
220.18593793103105,0.012916246996239887,0.001607140393736933,0.0320780773538654
232.11575261010105,0.012717809470694999,0.0016390743892052836,0.03181424472740233
244.69193226422044,0.012532236588243512,0.001678249219836966,0.03153676251316783
