tau,gamma,gamma_lo,gamma_hi
1e-07,2.8703725348561562e-05,1.6449791627914554e-06,9.590660921374395e-05
1.1097524964120721e-07,0.0001468963628112448,8.473810636394672e-06,0.0004902638365772003
1.2315506032928263e-07,0.0005078407846107771,2.975335823114278e-05,0.001690320749563843
1.3667163564620074e-07,0.0012132143262696125,7.359185410157837e-05,0.004013075133801827
1.5167168884709241e-07,0.002099935428145868,0.00013646890526339937,0.006856515870558534
1.6831803533309585e-07,0.0028557595322070387,0.00020728851718764674,0.009115585841164321
1.867913599020781e-07,0.00336476012387885,0.00027918834273986604,0.010420550742741529
2.0729217795953698e-07,0.0036969728003755082,0.0003477141574285483,0.011093494328549001
2.300430119772917e-07,0.003925237490680166,0.00040621405979226615,0.011412901370330481
2.5529080682395163e-07,0.004065277624136076,0.0004428128130723451,0.01140238606430612
2.833096101839324e-07,0.004114021301764859,0.000448074234113839,0.011070072183925049
3.1440354715915e-07,0.004099415000828436,0.00042403658001641996,0.010641629980876657
3.489101213406774e-07,0.004049062369083845,0.0003840325399266392,0.010323400919816454
3.872038781812557e-07,0.003989353090506011,0.0003596839611833714,0.010133424959897002
4.2970047043208437e-07,0.003932090103087399,0.0003808073924796726,0.009971246324900263
4.768611697714474e-07,0.003880017600939848,0.0004404358634466096,0.009780010010620883
5.291978735958437e-07,0.0038266169907990167,0.0005035540455905303,0.009548547420836799
5.872786613189477e-07,0.0037673288416664084,0.0005405880011320061,0.009299177274327252
6.517339604882421e-07,0.003703691405734897,0.0005341822997620405,0.009074824867032009
7.232633896483533e-07,0.003637929118197262,0.00048670944626419025,0.008875606794809707
8.026433522257174e-07,0.003580969488808577,0.00042504812935651516,0.008670282048158678
8.907354638610439e-07,0.0035366179235828705,0.00037629834023970475,0.00844277358178895
9.884959046625586e-07,0.0035081387303053154,0.00035672083465620666,0.008267861860801994
1.096985797892384e-06,0.0034900577444541077,0.0003690411473046555,0.008211512416236898
1.217382727739662e-06,0.0034796307429480157,0.00039630464200290005,0.008261893290026303
1.3509935211980278e-06,0.0034718370465782107,0.00041458623527450956,0.008338073233411673
1.499268432786047e-06,0.003471919957086255,0.0004165723425041421,0.008359205769021164
1.6638168860761274e-06,0.003488857225312507,0.0004095094194787251,0.00826841915765368
1.8464249428955464e-06,0.0035252333886672455,0.00040484484163548024,0.00812107475842963
2.049074689815846e-06,0.003576646754699086,0.00041348927730417345,0.008085672159599872
2.2739657523579273e-06,0.0036333994008154484,0.00043476482300182774,0.008247820965608976
2.523539170434766e-06,0.0036910052456680473,0.0004547285922379898,0.008548467256209249
2.800503894183631e-06,0.0037485004759848805,0.00046901312695308883,0.008892602910076444
3.107866187782014e-06,0.003825479726031991,0.0005009269802782788,0.009253372582910471
3.4489622604057595e-06,0.003935034804793564,0.0005691061232360786,0.009612771343252297
3.827494478516315e-06,0.004072710780772558,0.0006468217263215834,0.009944166983026971
4.247571552536894e-06,0.0042166123690951865,0.0006862252987824914,0.010193175379673113
4.713753134116729e-06,0.004357477483625704,0.0006821531009439307,0.010343479984532342
5.2310993080562585e-06,0.004492918441009609,0.0006661327181273126,0.010411104089994213
5.805225516094895e-06,0.004619982964532164,0.0006560350626857724,0.010444643535764868
6.44236350872137e-06,0.004737247255526241,0.0006466376097517318,0.010534476543042747
7.149428986597577e-06,0.004851875984321564,0.0006375949165626553,0.010737439531889728
7.934096665797492e-06,0.004998280154281605,0.0006508001121456573,0.011069069929194304
8.804883581643465e-06,0.005198266772531071,0.0007049792240315767,0.011488969900663528
9.771241535346501e-06,0.005449715406363502,0.0007940551515339167,0.011933175122886108
1.0843659686896109e-05,0.0057319111611353266,0.0009049177164138181,0.012344895812846613
1.2033778407775906e-05,0.006045175731385863,0.0010435770110015891,0.012799996583206807
1.3354515629298974e-05,0.006389909728663469,0.0012194045230597328,0.013406698366172054
1.48202070579886e-05,0.006757227234656322,0.0014108182267589104,0.01414608000680013
1.6446761779946626e-05,0.007122428415979365,0.0015620189158144712,0.014884901661980126
1.8251834943190462e-05,0.007479088945779533,0.0016356363429492998,0.015625186649191092
2.0255019392306664e-05,0.00785039263017755,0.0016324099095803566,0.016557009372565316
2.2478058335487252e-05,0.0082438773417714,0.0015806440771259124,0.01771685807818455
2.4945081352303165e-05,0.008650780594033822,0.0015432943148565622,0.018834493218707303
2.7682866303920665e-05,0.009054478355681269,0.0015684878961680704,0.01967341019966344
3.072112998861759e-05,0.00948982866130754,0.0016477572530009755,0.02048966288250301
3.409285069746814e-05,0.009991477341803662,0.0017419117539473974,0.02164580062456052
3.783462617131933e-05,0.0105748012293884,0.0018299491258980225,0.023108731140648462
4.1987070844439056e-05,0.011222586276743218,0.0019254354427377654,0.024518642854123543
4.659525668664687e-05,0.011935874775965095,0.0021079541446548103,0.02573881667843287
5.170920242896755e-05,0.0127308190678405,0.0024972656009195843,0.026944992236564057
5.7384416483024044e-05,0.013626576221370494,0.0031023787755638794,0.028453938469162332
6.368249944718586e-05,0.014651990004975133,0.003749344861401456,0.030664458265065038
7.067181273927492e-05,0.015834212872295566,0.0042386557733072395,0.033740741631485945
7.842822061337681e-05,0.017236822258752102,0.0044615886953258575,0.037454526176224426
8.703591361485166e-05,0.018915205391899434,0.004425263071124797,0.04151230383548628
9.658832241158708e-05,0.020952330089764257,0.004348253324071656,0.04609061430543778
0.00010718913192051276,0.023426126417509973,0.00445419159231359,0.05160208047484714
0.00011895340673703195,0.02648950462770106,0.004638704482588498,0.058554703720840186
0.0001320088400831418,0.03036264730642661,0.004649232909188249,0.06737494502964014
0.00014649713983072864,0.03544134041618681,0.004733014307922575,0.07841041297178014
0.0001625755666443795,0.04225836983420861,0.0056211679065912715,0.09188235602572888
0.00018041864093920718,0.051323333693335305,0.007434237557292855,0.10835139300695708
0.00020022003718155845,0.0630136232557784,0.009356705894636098,0.1287819039326957
0.0002221946860939524,0.0778884065320675,0.01151097051678506,0.1540055752802032
0.0002465811075822604,0.0968587073964714,0.016525697328636645,0.18427544560291717
0.0002736439997074672,0.12077888369850127,0.02753506800758914,0.21934419804264862
0.00030367711180354605,0.14997619127438114,0.04518009126820406,0.2592135975402712
0.00033700643292719284,0.1838771684887593,0.06851310771020619,0.3034210258901125
0.0003739937302478798,0.22148756874700862,0.09703350603441992,0.35180887923828036
0.0004150404757850477,0.2606076594206677,0.13023702368974574,0.402867619910929
0.00046059220411451084,0.29911470986761207,0.166998875011098,0.45342756852803157
0.0005111433483440171,0.3344852521621277,0.20443365589482346,0.4978874564129994
0.0005672426068491978,0.3646802429189175,0.23967137177576195,0.5322151967362768
0.0006294988990221888,0.38919208620152784,0.2704526958492879,0.5573878349732555
0.0006985879746785249,0.40749573203112915,0.29451662559292735,0.5756044998636415
0.0007752597488629464,0.42044706572240004,0.31091001790033784,0.5909510259391715
0.000860346441668451,0.4279424694044882,0.3185347815802387,0.6042768549990057
0.0009547716114208065,0.42954421985414515,0.31794489891958977,0.6105960666520261
0.001059560179277617,0.4238742129997622,0.30991032110843314,0.6013521950337217
0.0011758495540521582,0.41086187558516224,0.2950941405322473,0.5760351751056382
0.0013049019780144017,0.3919473669129202,0.27429286750630505,0.5425359109312418
0.001448118227674533,0.3683391526678074,0.2484904445666085,0.5070951989416381
0.0016070528182616384,0.34193003256149007,0.2203018416950818,0.4730443314324337
0.0017834308769319094,0.31356852282316244,0.19174579416683787,0.44002387927565845
0.0019791668678535573,0.28439873473426736,0.16472184238266308,0.4064699125947569
0.002196385372416547,0.25502040524761094,0.1403222389652786,0.37095915807802615
0.002437444150122222,0.22660921403576065,0.11899945929781737,0.33604695933922757
0.002704959730463137,0.2002480631178013,0.10087364443430913,0.30487440194085186
0.0030018358135755923,0.17633484169422542,0.08578154370632679,0.2767282949421824
0.003331294787934677,0.15495421073472762,0.07339283566833495,0.24859597373570336
0.0036969127071950323,0.13581574800878424,0.0625187919220119,0.2200354282945454
0.00410265810582719,0.11886060498476422,0.051656340941292574,0.19429270681287075
0.004552935074866948,0.10388312208376398,0.040771811589703916,0.1728020426596967
0.00505263106533568,0.090957499217433,0.032176547132667314,0.15408984788861207
0.005607169938205458,0.07991088914165037,0.02730690563838646,0.13630402507550096
0.006222570836730231,0.07042015639968292,0.02455641625737739,0.11984348384528208
0.006905513520162331,0.06209591776508345,0.02163413503256634,0.10574780836850683
0.007663410868007463,0.05483373789116323,0.018204392795736206,0.09431138847973966
0.008504489341802686,0.04868055147993435,0.015119999308459229,0.08525391085236206
0.009437878277775391,0.04354097719807943,0.01272740512661833,0.07815669743576809
0.010473708979594508,0.039227172098982355,0.010779971119515199,0.07259416977312756
0.011623224686798541,0.03545739156554459,0.009017395613551376,0.0677881937718049
0.01289890261253308,0.031997795922755874,0.007402699380437129,0.06276812373112979
0.014314589375234785,0.02870325042469605,0.005969299364696719,0.057084887143374584
0.015885651294280528,0.025684935629859594,0.004779076961459526,0.051450056254928586
0.01762914118095948,0.023023752690252502,0.003854051330093988,0.04660148718811134
0.01956398343517065,0.02069903272818704,0.0031454217588433885,0.04274919578733161
0.021711179456945052,0.018620782526021753,0.0025862076093403712,0.039631247709348644
0.02409403560239527,0.01675448453965553,0.0021412744500746094,0.036723220664003006
0.026738416158399492,0.015106857567650428,0.0018014277488018079,0.03351715867621263
0.029673024081888724,0.013663394253357037,0.001545049863881121,0.030127716197992566
0.032929712550971546,0.012411819715094266,0.0013516530231107964,0.027204014325291025
0.036543830709572546,0.011342230812583384,0.001248227621095566,0.024998227567493887
0.040554607358408275,0.010483647667637614,0.0013094594791689244,0.023238565142854523
0.04500557675700498,0.009816509534738857,0.0015329140863667636,0.02162257694961372
0.0499450511585514,0.009267858311396947,0.0017650068330886397,0.02018011033111029
0.05542664520663107,0.008755705098935336,0.0018635495293601973,0.01899036777622646
0.06150985788580504,0.008276260881829409,0.0018556213474202948,0.018021385896382625
0.06826071834272393,0.007848851554942254,0.001833802292516396,0.017161544267464787
0.0757525025877192,0.007478761636616768,0.0018255537285939843,0.016378670560887973
0.08406652885618333,0.007153067676995889,0.001799228737621926,0.015704155963525573
0.09329304026284696,0.006862914386110159,0.001732665320275507,0.015181985152299687
0.10353218432956637,0.00661258166062274,0.0016307011288358955,0.014849166256429664
0.11489510001873086,0.006396101627762863,0.0015131178510142777,0.014647551344038088
0.1275051240713013,0.006206989613473392,0.0014127452177076533,0.014433623831649058
0.1414991297434576,0.00603104190302136,0.0013400121456216682,0.014084415878466736
0.15702901247293774,0.005871712081717919,0.001270678638427457,0.01363783283489283
0.17426333860096507,0.005730854041553247,0.001185070704399709,0.013185168385927322
0.19338917504552322,0.005624106315715001,0.0011164175552810477,0.012861167755323567
0.21461411978584058,0.005557312206875811,0.0011127988014323531,0.012741739664815276
0.23816855519761607,0.005516581708308001,0.0011683943840319596,0.012731633118244625
0.2643081486974108,0.00547029855918036,0.0012317145015026476,0.012620641794091798
0.29331662783900486,0.005402355831103304,0.0012606140695335113,0.012333744651842136
0.32550885998350565,0.005320444700734152,0.0012353293500677169,0.011984383906285553
0.36123426997094304,0.005233211247397978,0.0011612975146996776,0.011728459376806335
0.40088063288984643,0.005157038714710712,0.001073736881848703,0.011729177136323186
0.4448782831127585,0.00509467929667889,0.0009987801867327914,0.011997095210184543
0.4937047852839004,0.005045957156960564,0.0009355719881043586,0.012304544486147576
0.5478901179593945,0.004997313547211213,0.0008732857640871809,0.012366449635937787
0.6080224261649427,0.004940792199857969,0.0008154136281042933,0.012138600178560034
0.67475440531107,0.00486906396851075,0.0007746343288985,0.011736747734927168
0.748810385759003,0.004797038381440984,0.0007592983734591804,0.011371967833941269
0.8309941949353403,0.004752555017811141,0.0007704008450046936,0.011273692263421904
0.9221978823334341,0.004745253132596084,0.0007979065248379891,0.011472974391183385
1.0234114021054528,0.004765278937513792,0.000821036236495515,0.011781880939542248
1.135733358343105,0.004793139596980909,0.0008223861733223109,0.011995537474807754
1.2603829296797273,0.004818636704499861,0.0007975301073825884,0.012017649912750944
1.3987131026472386,0.00483257846446553,0.0007516543447577988,0.011839830151911503
1.552225357427048,0.004846149897521498,0.0007054843657053822,0.011617110299561861
1.7225859653987874,0.00486420010620192,0.0006792685535664671,0.011510532240375843
1.9116440753857036,0.004883940154777025,0.0006751351708167166,0.011562627946583144
2.121451784910632,0.0048931767428082714,0.0006813184879467086,0.01170587637779981
2.35428641432242,0.004899011698514314,0.0006844889253034944,0.011848825374668706
2.612675225563332,0.004922719444576567,0.0006749330706713338,0.011904684969686729
2.8994228538828812,0.004968870103861895,0.0006579647977178104,0.011870609543092162
3.2176417502507353,0.005024926970485715,0.0006569211299788955,0.011860271957412322
3.5707859649004625,0.005077555727551036,0.0006888842148595671,0.011963706132132983
3.9626886387014784,0.005138376443245234,0.0007519119620367688,0.012213541908642352
4.397603609302721,0.00520811243682238,0.0008313795375171777,0.012570469879350711
4.880251583654434,0.005271098756848909,0.0009047673231238247,0.012957294027749772
5.415871378079476,0.0052946155056677,0.0009474912546671513,0.01326198517204228
6.010276782070388,0.0052697823731964,0.0009505617232786793,0.013434225842206354
6.669919663030129,0.005197986464084402,0.000912388589148165,0.01345631803023559
7.401959996915652,0.005084927049998052,0.0008315452871779258,0.013367847554108976
8.214343584919439,0.004938778413960006,0.0007105016145199125,0.013243908122296092
9.115888299750837,0.004759142368995319,0.0005692175442389923,0.013085075622043132
10.11637979766207,0.00454845430705213,0.00045344614121817223,0.012824558578697588
11.226677735108158,0.0042943315362278245,0.0003866514049248827,0.01240946902769782
12.458833642950081,0.003978875108248874,0.00034127209941587586,0.01189071792637255
13.826221737646593,0.003547159666143925,0.00028033956951108727,0.011144096693999263
15.343684089300131,0.002915662230523364,0.0002013859360664743,0.009682925018349943
17.02769172225898,0.0020457018040333065,0.0001233715664829454,0.007086723164798368
18.896523396912116,0.0011126873710620888,6.120794139709179e-05,0.003947483075180235
20.970464013232306,0.0004348104283094286,2.2795717646011198e-05,0.0015600260843175763
23.27202478960412,0.00011692118600953918,5.997409103353411e-06,0.00042153939438006963
25.826187606826746,2.1199244327379456e-05,1.0773589074038144e-06,7.658514819808572e-05
28.66067616948256,2.569009924262715e-06,1.3005925059930368e-07,9.288591527637253e-06
31.80625692794119,2.0732078000414173e-07,1.0479462603806607e-08,7.498480323756036e-07
35.297073027306574,1.1125057685291116e-08,5.619822458299359e-10,4.02431560735263e-08
39.17101490809261,3.9671638155393215e-10,2.0034968250191025e-11,1.4351388804873312e-09
43.47013158125035,9.398734761198947e-12,4.746053658631326e-13,3.4001096337270434e-11
48.241087041653735,1.4791993264179085e-13,7.469157590304611e-15,5.351236759804652e-13
53.535666774107185,1.5464450891281505e-15,7.808578979771861e-17,5.59452944495718e-15
59.411339849650396,1.0739540489493742e-17,5.422757710448982e-19,3.885218116486257e-17
65.93188271333541,4.954244235443801e-20,2.5015587001346265e-21,1.7922862762149473e-19
73.16807143427206,1.5181283100099154e-22,7.665513850452055e-24,5.492101455852305e-22
81.19844993184009,3.090141934554191e-25,1.5603104681241694e-26,1.1179143803253548e-24
90.11018251665037,4.178179249241249e-28,2.1096945541071392e-29,1.5115314931981983e-27
100.0,3.752617698287384e-31,1.8948149552620628e-32,1.3575769697903175e-30
