tau,gamma,gamma_lo,gamma_hi
1e-07,1.090529763666482e-05,-3.7349376836620825e-05,9.453800078219355e-05
1.1097524964120721e-07,5.585655172899119e-05,-0.000191338217838717,0.0004834070211622801
1.2315506032928263e-07,0.0001934865245816879,-0.0006630896353125929,0.0016677896379737622
1.3667163564620074e-07,0.00046427042565726266,-0.0015926741660983988,0.0039650667738747175
1.5167168884709241e-07,0.0008104324726894611,-0.0027856715959187752,0.006788993916881314
1.6831803533309585e-07,0.0011153475058464119,-0.0038453195772686273,0.00902961990603296
1.867913599020781e-07,0.001324418679622594,-0.004579063755983743,0.010217945451745099
2.0729217795953698e-07,0.0014449168410150992,-0.004996664880838704,0.010532536787235975
2.300430119772917e-07,0.0015022028457492415,-0.005169395794894552,0.010309093776596046
2.5529080682395163e-07,0.0015231099473229262,-0.005188271066021996,0.009894886785087213
2.833096101839324e-07,0.0015200683537729318,-0.0051505013561132075,0.009524478470765173
3.1440354715915e-07,0.0014933033355254775,-0.005188854788743647,0.009332103199388328
3.489101213406774e-07,0.00143684810103925,-0.005367213480548282,0.009321046164559282
3.872038781812557e-07,0.0013556668722097265,-0.005593798736188963,0.00934521984073247
4.2970047043208437e-07,0.0012581696109479114,-0.005726293075389939,0.009217500353787446
4.768611697714474e-07,0.001154557689514582,-0.005772859968000608,0.008933223831800306
5.291978735958437e-07,0.0010559701965416944,-0.005826838774231852,0.008598941658471564
5.872786613189477e-07,0.0009715239699295038,-0.00589072132703084,0.008253478871948614
6.517339604882421e-07,0.0009088527133496715,-0.0058678915573640855,0.007861027444345716
7.232633896483533e-07,0.0008628789006439283,-0.005727420578554122,0.007418440389348996
8.026433522257174e-07,0.0008166303956444214,-0.00557532104063264,0.007025422522639058
8.907354638610439e-07,0.0007611760873790002,-0.005480190514109337,0.006752754176059426
9.884959046625586e-07,0.0007126048905066425,-0.005390293079177087,0.006588199307968458
1.096985797892384e-06,0.0006858103902371925,-0.00523379300762933,0.00647531863153895
1.217382727739662e-06,0.0006697422068774591,-0.005066607724587278,0.006385297811339307
1.3509935211980278e-06,0.0006450756285370297,-0.004988361559976306,0.006311091432486466
1.499268432786047e-06,0.0006214854459946703,-0.005000104774215673,0.006283673137795797
1.6638168860761274e-06,0.0006299983125013168,-0.005015371008200382,0.006345002868151966
1.8464249428955464e-06,0.0006816817865665032,-0.004975769540725106,0.006487085545111483
2.049074689815846e-06,0.0007614729155561807,-0.004883441977944754,0.006648195080578205
2.2739657523579273e-06,0.000857418551548795,-0.004770794054165686,0.006779032374688064
2.523539170434766e-06,0.0009719633763830668,-0.0047005114937442236,0.006888264162275753
2.800503894183631e-06,0.001108245230277808,-0.0046985947264181925,0.007004621462055761
3.107866187782014e-06,0.0012610317178153054,-0.004723132951636993,0.007184818052300158
3.4489622604057595e-06,0.0014238593915466063,-0.004694492942230243,0.0074600343700176215
3.827494478516315e-06,0.0016057905759766502,-0.004562016474701968,0.007808953039214195
4.247571552536894e-06,0.0018173696245389515,-0.004304151194556049,0.008170113131954532
4.713753134116729e-06,0.0020537573943181335,-0.003965636358863634,0.00852358635691069
5.2310993080562585e-06,0.0022945240888630433,-0.0036376283010244865,0.008881892216000362
5.805225516094895e-06,0.0025384068410165394,-0.003360459545942966,0.009269600321822525
6.44236350872137e-06,0.0028056213304377903,-0.0031207300444336043,0.009705887445751623
7.149428986597577e-06,0.003105317408645292,-0.0029075872479696133,0.01015157063129783
7.934096665797492e-06,0.0034222698135665496,-0.0027506756897502298,0.010514124174127514
8.804883581643465e-06,0.003738714574746572,-0.0026506874430857795,0.010745398164252948
9.771241535346501e-06,0.004067980076872749,-0.002527376485010747,0.01099644910063934
1.0843659686896109e-05,0.004425309829001394,-0.0022885728208798728,0.011444368797674832
1.2033778407775906e-05,0.0048149509005271625,-0.0019559608846999713,0.01211461629308031
1.3354515629298974e-05,0.005223749702817838,-0.0016207474764148746,0.012919112334837744
1.48202070579886e-05,0.005654254750306422,-0.0013234122752555236,0.013846419990243204
1.6446761779946626e-05,0.006115450730504742,-0.001054053550249035,0.014939402353907724
1.8251834943190462e-05,0.006609438444882195,-0.000809230690549846,0.01615623728184556
2.0255019392306664e-05,0.007127736816480776,-0.0006142859088151684,0.017338302128754517
2.2478058335487252e-05,0.00766600127099931,-0.0004633192364828822,0.01841693130053727
2.4945081352303165e-05,0.00824877349616134,-0.000289015487372014,0.019578130276600984
2.7682866303920665e-05,0.008882455172608581,-4.7667233801784414e-05,0.02095469127977536
3.072112998861759e-05,0.00955043500020926,0.00018912306570089793,0.022420975348337722
3.409285069746814e-05,0.010213666102650398,0.0003194797018665222,0.023712186238116665
3.783462617131933e-05,0.010889870667885364,0.0003641563594179485,0.024825497861080473
4.1987070844439056e-05,0.011619092666295114,0.00042345953101528876,0.02596025763153194
4.659525668664687e-05,0.012442400437860676,0.0005275830244710068,0.02742320381309276
5.170920242896755e-05,0.01338172270411539,0.0006152782840067642,0.02951968587461801
5.7384416483024044e-05,0.01444314254156393,0.0006306222146774603,0.032248479732780985
6.368249944718586e-05,0.01563083422258761,0.0005773069922084317,0.03521322522259078
7.067181273927492e-05,0.016962287346672184,0.0005406827147901569,0.03808066888330921
7.842822061337681e-05,0.01852767243594249,0.0006950017404254017,0.040995736610363855
8.703591361485166e-05,0.020422552960288866,0.0010947673828588785,0.04425950544318972
9.658832241158708e-05,0.0227663919208353,0.0014191290404665714,0.048257815653322524
0.00010718913192051276,0.02566624877149659,0.0012764360472257137,0.05337917529007511
0.00011895340673703195,0.029290393385197608,0.0008405992685623091,0.06019226569859456
0.0001320088400831418,0.033834576633065376,0.0007438526337352868,0.0693512198273467
0.00014649713983072864,0.03959895360514067,0.0013843788934698293,0.08148422350677192
0.0001625755666443795,0.04695606242471913,0.0026395021768480546,0.09696321304670141
0.00018041864093920718,0.05638728605195016,0.003742517983296916,0.11588656011140414
0.00020022003718155845,0.06846105593659556,0.0035151838263601104,0.1379843304794706
0.0002221946860939524,0.08389046386036127,0.0026019326791741383,0.16367157862513018
0.0002465811075822604,0.10349316235130131,0.005490837171661142,0.19497181827360985
0.0002736439997074672,0.12777318005258323,0.0171086343571525,0.23369517534357506
0.00030367711180354605,0.15649055958321265,0.037720733841167337,0.2796307581450658
0.00033700643292719284,0.18853698650244433,0.06473715399135377,0.3305108102827158
0.0003739937302478798,0.22315449047322178,0.09657078180648555,0.3846153264754152
0.0004150404757850477,0.25909920003989817,0.1321606557424135,0.4390846170143775
0.00046059220411451084,0.29505246522661294,0.16976398950521301,0.48958431085027193
0.0005111433483440171,0.32901580101934264,0.2057346504354388,0.5297408771106286
0.0005672426068491978,0.3592149015507087,0.2375051113233063,0.556376347840458
0.0006294988990221888,0.38502126421994826,0.26500361418377477,0.5737240032813988
0.0006985879746785249,0.4053020036398082,0.2878392483619141,0.5848810105813378
0.0007752597488629464,0.41951866899137563,0.3046398664104495,0.5887879676891973
0.000860346441668451,0.42645908388328474,0.3131668372769443,0.5823696446259853
0.0009547716114208065,0.42664181818724817,0.31414142853439225,0.5692741764437104
0.001059560179277617,0.4207831682940283,0.30948199637520746,0.5560056067748719
0.0011758495540521582,0.4094257608019806,0.30037554571028285,0.543758494083174
0.0013049019780144017,0.3929880491175055,0.2869678566246153,0.528664703853043
0.001448118227674533,0.37168604629014673,0.2685120479113822,0.5085123168168078
0.0016070528182616384,0.34692202970689345,0.2447672622746375,0.4860608573368916
0.0017834308769319094,0.319268851787852,0.21598814343343706,0.4617155678957805
0.0019791668678535573,0.289646400539307,0.18501214905416477,0.43192250077035227
0.002196385372416547,0.25855924948515646,0.15467835167449062,0.39302488075826786
0.002437444150122222,0.22756578428861185,0.1267965397842757,0.3490925170577568
0.002704959730463137,0.1983160464422061,0.10214822552239369,0.3067689986659419
0.0030018358135755923,0.17154616248845017,0.0802288074892265,0.2682114281783248
0.003331294787934677,0.14762787037482467,0.06053983091777092,0.2324367492256841
0.0036969127071950323,0.12675366306883132,0.04410108618049854,0.1993157094436859
0.00410265810582719,0.10955425195856666,0.033591096654761066,0.1712515704664237
0.004552935074866948,0.09592268813717188,0.029326263917459915,0.1494203943803117
0.00505263106533568,0.08506725315798763,0.027865268596587688,0.13306515837731495
0.005607169938205458,0.076011370971205,0.02605311580706971,0.12046895207362375
0.006222570836730231,0.06824721063782883,0.023689241212745796,0.11000530499100268
0.006905513520162331,0.06146930407666094,0.02170265868124853,0.10038540890260227
0.007663410868007463,0.055551789193728426,0.020278584408393325,0.09135907436764898
0.008504489341802686,0.0504119232695161,0.0189925578822414,0.08321647574675678
0.009437878277775391,0.0459260141618199,0.01756200846985205,0.07624321214926236
0.010473708979594508,0.04197808981532606,0.015924987531598166,0.07062329799580855
0.011623224686798541,0.038433415595611156,0.01400050687125853,0.06607831288886228
0.01289890261253308,0.03524959289465847,0.011723741396776913,0.062055699563261575
0.014314589375234785,0.03236100995446824,0.009276019036966959,0.05818573043007766
0.015885651294280528,0.029781939856569118,0.007289640559107658,0.054711092033245125
0.01762914118095948,0.027463065944777536,0.0061936499047884645,0.051771046876302504
0.01956398343517065,0.025340395222836962,0.005688602207984495,0.049128637745194326
0.021711179456945052,0.023312089706339207,0.005214308600608099,0.04635416744861723
0.02409403560239527,0.021344540514698425,0.004521312593193499,0.04338465453758448
0.026738416158399492,0.01945042410888405,0.0036485053291603867,0.04038765497452799
0.029673024081888724,0.017675128005720315,0.0027995240472182006,0.03754840561549603
0.032929712550971546,0.01610006420082448,0.0022389118580761667,0.03502316671827426
0.036543830709572546,0.014715052792600611,0.0019787694686545973,0.032733871499917085
0.040554607358408275,0.013449823726308418,0.001733807131696857,0.030466599142130867
0.04500557675700498,0.012229748028901774,0.0012657249701783268,0.02810091482939245
0.0499450511585514,0.011076639182851684,0.0005840462909815473,0.02588303185101155
0.05542664520663107,0.010022666920992915,-0.00017938442961495048,0.023993788814094013
0.06150985788580504,0.009099819991036484,-0.0008460650464908324,0.022314245503961123
0.06826071834272393,0.008315489757576872,-0.0012699960959809543,0.020628005274910412
0.0757525025877192,0.007648022904110973,-0.0014798700365184821,0.01903926202300166
0.08406652885618333,0.00706287144021702,-0.0015999445861805542,0.01783418438656905
0.09329304026284696,0.006539631618001112,-0.0016970226891140673,0.017015739338942022
0.10353218432956637,0.006082689158738271,-0.0017680753269570834,0.016309253252775154
0.11489510001873086,0.005681166216119417,-0.001826842521960449,0.01552360595257174
0.1275051240713013,0.005316821530202883,-0.001932159664659903,0.014719989604852619
0.1414991297434576,0.00497097654864979,-0.00209491030101974,0.013981961489640227
0.15702901247293774,0.004656367842806722,-0.002223786862349876,0.013348998421921918
0.17426333860096507,0.004382168689066066,-0.002238124792751572,0.012796560124283159
0.19338917504552322,0.004144714759552166,-0.0022064359040407625,0.01229983934004337
0.21461411978584058,0.003931958973601402,-0.0022475843072291535,0.01184202304055057
0.23816855519761607,0.0037500308197686402,-0.002369860216870512,0.011477661932423912
0.2643081486974108,0.003615386958327181,-0.0024894449146931306,0.011284675058503467
0.29331662783900486,0.003522998037478895,-0.0025577548934658956,0.011227826590964341
0.32550885998350565,0.003447067929490738,-0.0025886191345855054,0.011164040326847379
0.36123426997094304,0.003365263777276108,-0.0026204842252301433,0.011008129319947756
0.40088063288984643,0.0032791146985957638,-0.002700536874290212,0.010824102738515563
0.4448782831127585,0.0031944181319098677,-0.0028335644705390546,0.010660052814618265
0.4937047852839004,0.003125494860975643,-0.0029530644827972467,0.010493087775224135
0.5478901179593945,0.0030785601921080995,-0.0029791702073524847,0.010277055466440706
0.6080224261649427,0.0030506428666593386,-0.002912189588012595,0.010075407588849521
0.67475440531107,0.003027590111115186,-0.0028048700824114415,0.009980454371785264
0.748810385759003,0.0029971172185913712,-0.0027296326245220756,0.009990676757509373
0.8309941949353403,0.0029504860302665098,-0.0027563202771900223,0.010023436719208637
0.9221978823334341,0.002892242111257226,-0.0028906819456641086,0.010046102052590683
1.0234114021054528,0.0028447115033018357,-0.003067217111995561,0.010111288244050732
1.135733358343105,0.0028222521667945898,-0.0032163344386441726,0.010253127602897353
1.2603829296797273,0.002828834322734256,-0.0032989935631566126,0.010458783678748204
1.3987131026472386,0.0028560734232546043,-0.003299424275971856,0.010656956983045762
1.552225357427048,0.0028935303374870965,-0.003245851201263655,0.010761036269934781
1.7225859653987874,0.002927988995597772,-0.003175147018731572,0.010706777467389647
1.9116440753857036,0.0029603174880977164,-0.0031187595003661557,0.010595079888432214
2.121451784910632,0.0029924513573386063,-0.003093215840596884,0.010585996055696916
2.35428641432242,0.0030188877154651117,-0.0030933877209302517,0.010710089675024409
2.612675225563332,0.0030267497555280755,-0.0031001610761100633,0.010870834309455403
2.8994228538828812,0.0030140463056386197,-0.0031089066011315463,0.011002746515702398
3.2176417502507353,0.002998252871380807,-0.0031379039155339976,0.011128844368568949
3.5707859649004625,0.0029873565848582972,-0.003187903865155057,0.01126507569489326
3.9626886387014784,0.0029766098474684954,-0.0032312185548525893,0.011401803534484342
4.397603609302721,0.0029544628014690527,-0.003242227228697609,0.011483509658600038
4.880251583654434,0.00292605037902026,-0.0032470165253438775,0.011462568962984353
5.415871378079476,0.0028958622890872606,-0.003281559909737775,0.011300940283653091
6.010276782070388,0.002860069849857719,-0.0033479355789754676,0.011069962410760947
6.669919663030129,0.0028041721552725316,-0.003420133448527301,0.010892167279990173
7.401959996915652,0.0027177569440347735,-0.0034892870026139826,0.010822347413573952
8.214343584919439,0.002598862602284446,-0.0035604654986507536,0.010831416733755896
9.115888299750837,0.0024503075370094912,-0.0036106485665715463,0.0108309846177874
10.11637979766207,0.002285662213415013,-0.003591117359939375,0.01070514941728334
11.226677735108158,0.0021031143033527445,-0.0035067728386848364,0.010349033906636933
12.458833642950081,0.001882859352508078,-0.0034727152642888494,0.009735730789505244
13.826221737646593,0.0015961629850494276,-0.003505074709372162,0.008771981130797976
15.343684089300131,0.0012363629232348104,-0.0033156980830486363,0.007267509468890285
17.02769172225898,0.000825815113185229,-0.002578153659053411,0.0051257315843048126
18.896523396912116,0.00043604868629125676,-0.0014831016274308045,0.002795841743665732
20.970464013232306,0.000167938301014057,-0.0005948024181464442,0.0010939851139709833
23.27202478960412,4.4870844641585646e-05,-0.0001617338721617878,0.0002943412962509577
25.826187606826746,8.113838773513966e-06,-2.9459982204732935e-05,5.338027531461529e-05
28.66067616948256,9.82185144376759e-07,-3.5768199797027497e-06,6.469461386602392e-06
31.80625692794119,7.9227442372259e-08,-2.888730425076298e-07,5.221102464129063e-07
35.297073027306574,4.250656901180398e-09,-1.5506057813913696e-08,2.8017447217246384e-08
39.17101490809261,1.5156603869147437e-10,-5.530111839552968e-10,9.991006078567848e-10
43.47013158125035,3.5906923578793603e-12,-1.3102232443182086e-11,2.367007399851028e-11
48.241087041653735,5.6510644049077165e-14,-2.0621087384566114e-13,3.7252667911133723e-13
53.535666774107185,5.907938101815577e-16,-2.15587209415167e-15,3.894622512324611e-15
59.411339849650396,4.1028559833400626e-18,-1.4971856438164056e-17,2.7046846791694724e-17
65.93188271333541,1.8926819392643865e-20,-6.906658152297309e-20,1.247694855444996e-19
73.16807143427206,5.799740516698824e-23,-2.1164073818077223e-22,3.8233095623869293e-22
81.19844993184009,1.1805338791247375e-25,-4.3079367026230185e-25,7.782325950388061e-25
90.11018251665037,1.5961991388311512e-28,-5.824759428812615e-28,1.0522478784575273e-27
100.0,1.4336208794035443e-31,-5.231488363452659e-31,9.450729094067547e-31
