tau,gamma,gamma_lo,gamma_hi
1e-07,4.04717288692175e-06,-8.127440768750436e-05,9.073998073570174e-05
1.1097524964120721e-07,2.0686189430904033e-05,-0.0004159253083051081,0.0004634312240023582
1.2315506032928263e-07,7.13022771883174e-05,-0.0014378089104315898,0.0015943468314142508
1.3667163564620074e-07,0.00016919966323464226,-0.003434149549751852,0.003766628666014865
1.5167168884709241e-07,0.0002889825458516967,-0.005939977374726802,0.006371642096278881
1.6831803533309585e-07,0.0003850797960862841,-0.008059256968021598,0.0083390431971563
1.867913599020781e-07,0.0004456374682613759,-0.0094332179444956,0.009396812325698336
2.0729217795953698e-07,0.0004887128709537067,-0.010218351128429021,0.010012578354565111
2.300430119772917e-07,0.0005231548832145796,-0.010611045154823103,0.010519539804092698
2.5529080682395163e-07,0.0005402436886827424,-0.010694665646521316,0.010866349207028348
2.833096101839324e-07,0.0005455512942706554,-0.010498960748023055,0.010981836225750712
3.1440354715915e-07,0.000579916912897466,-0.010128875979656423,0.011052047085785475
3.489101213406774e-07,0.0006736974037108283,-0.009709417341858937,0.011260343473103354
3.872038781812557e-07,0.0007991680612721863,-0.009407596347421244,0.011583987333570413
4.2970047043208437e-07,0.0009007129031994801,-0.009342417115942955,0.01186244725913039
4.768611697714474e-07,0.0009497527037865107,-0.009464839668697739,0.011994980420471783
5.291978735958437e-07,0.0009436957629952795,-0.009602297053956524,0.011946124449502061
5.872786613189477e-07,0.0009042989387016008,-0.009637429995440192,0.011787439985128004
6.517339604882421e-07,0.0008665453214164863,-0.009548946691119933,0.011659376577994198
7.232633896483533e-07,0.0008350079568704619,-0.00941180979636609,0.011566205911602208
8.026433522257174e-07,0.0007772518917229479,-0.009403045245158316,0.011358179242098287
8.907354638610439e-07,0.0006783041551375956,-0.00958481021618357,0.010966093119297464
9.884959046625586e-07,0.0005821560267351814,-0.009799130407661368,0.010626109239696388
1.096985797892384e-06,0.0005299985732107569,-0.009858876227884075,0.010591018713690364
1.217382727739662e-06,0.0004932219717202822,-0.00981942814987631,0.01085783111974658
1.3509935211980278e-06,0.000409704613147301,-0.009844064598522944,0.011222399761232496
1.499268432786047e-06,0.00025891606656612684,-0.010013350672736919,0.01144442185473159
1.6638168860761274e-06,6.286110849266477e-05,-0.01030281733887681,0.011304620571887414
1.8464249428955464e-06,-0.00014638322702758416,-0.010647186384475767,0.010808652095021241
2.049074689815846e-06,-0.0003354081584947155,-0.010969952424933059,0.010200498632241218
2.2739657523579273e-06,-0.0004992506869312984,-0.01123766385378268,0.009652684872442434
2.523539170434766e-06,-0.0006684674121136811,-0.011498029156823752,0.009193780727666925
2.800503894183631e-06,-0.000868625378260812,-0.011763968737057496,0.008799944289092983
3.107866187782014e-06,-0.0010895992913254673,-0.011987789405189592,0.008508495826640467
3.4489622604057595e-06,-0.0013017204315893054,-0.01210782193028999,0.008342892531539773
3.827494478516315e-06,-0.001481596335643635,-0.012196899196095585,0.0082478205933131
4.247571552536894e-06,-0.0016086836834165344,-0.012348957151127294,0.008140675417447901
4.713753134116729e-06,-0.0016788231826987163,-0.012515733606286059,0.00806750322336339
5.2310993080562585e-06,-0.0017004906510662773,-0.012534695984775555,0.008151226905237932
5.805225516094895e-06,-0.0016966926881139236,-0.012381774340097284,0.008347029337114972
6.44236350872137e-06,-0.0017036510465400295,-0.01223250396680498,0.008415033333545003
7.149428986597577e-06,-0.0017324137591060505,-0.012182042667408414,0.008232930492108635
7.934096665797492e-06,-0.001757241906553532,-0.012155216693666092,0.00799041723652817
8.804883581643465e-06,-0.0017541794865793636,-0.012049851828699096,0.007897707969455754
9.771241535346501e-06,-0.0017440143776199617,-0.011932860054757745,0.007984433777213314
1.0843659686896109e-05,-0.0017553089298724897,-0.011912473822294285,0.008153937504042346
1.2033778407775906e-05,-0.001782192322881696,-0.01202240792103932,0.008301207908594944
1.3354515629298974e-05,-0.0017947566189230608,-0.01221281676987646,0.008343145308008865
1.48202070579886e-05,-0.0017853740363548301,-0.012423988272954366,0.008311702743248595
1.6446761779946626e-05,-0.0017715196007551516,-0.012608341588956901,0.00832208407052622
1.8251834943190462e-05,-0.0017682297341284538,-0.012778737127653211,0.008406275012973495
2.0255019392306664e-05,-0.00178167691443638,-0.01301999057656638,0.008483158457393619
2.2478058335487252e-05,-0.001808061939881444,-0.013323961241047424,0.00847793357892377
2.4945081352303165e-05,-0.001839848462760969,-0.013545432074983578,0.008428389088849714
2.7682866303920665e-05,-0.0018700886542045451,-0.013559773750718759,0.008387632043491399
3.072112998861759e-05,-0.0019062069885895274,-0.013516032189547458,0.00838561306467951
3.409285069746814e-05,-0.0019541813729203154,-0.013621933136487038,0.008422340841127291
3.783462617131933e-05,-0.0020059460625618804,-0.013878143524856537,0.008514247874338325
4.1987070844439056e-05,-0.0020435030548824028,-0.01411774444379434,0.008676666795880831
4.659525668664687e-05,-0.0020683464549287513,-0.014273788057899733,0.008899049406440965
5.170920242896755e-05,-0.0021000830838101585,-0.014415840525102338,0.009158594084503847
5.7384416483024044e-05,-0.0021400758832125543,-0.01460440848005859,0.009499340619881141
6.368249944718586e-05,-0.002163618922067478,-0.014876318452569176,0.010065439478244006
7.067181273927492e-05,-0.0021507790151890876,-0.015284822838575692,0.01092720483670905
7.842822061337681e-05,-0.0021149791838953914,-0.015983423044811217,0.011982961850528958
8.703591361485166e-05,-0.0020526062891259903,-0.017049220582933358,0.0131023627584294
9.658832241158708e-05,-0.001902751741453316,-0.018334408364591864,0.014334132284065432
0.00010718913192051276,-0.0015874831690400727,-0.0195696565163205,0.015749657375862734
0.00011895340673703195,-0.0011191130562805355,-0.020717080270113694,0.017273636413548198
0.0001320088400831418,-0.0005723489964012806,-0.021955520928303968,0.018825815416867866
0.00014649713983072864,5.7840630408915725e-05,-0.02362374494235711,0.0209408137833684
0.0001625755666443795,0.0009022568914071415,-0.026118914954612805,0.024808043733694184
0.00018041864093920718,0.0022327618302172736,-0.029496666021032965,0.031299343944932646
0.00020022003718155845,0.004516684073768396,-0.03331975706249133,0.0406716633349449
0.0002221946860939524,0.008491559500446708,-0.0373053146130897,0.053966864099874425
0.0002465811075822604,0.015278825445386454,-0.04191715042543344,0.07411962432802638
0.0002736439997074672,0.026627473823268213,-0.04774132955299909,0.10501751973997142
0.00030367711180354605,0.04506277966536691,-0.05447637461591653,0.14976307276882103
0.00033700643292719284,0.0740516010868455,-0.05893407098656497,0.2105548581178249
0.0003739937302478798,0.11738675561897938,-0.052138779593459486,0.2884857091955187
0.0004150404757850477,0.17757967365230978,-0.02122543824535355,0.38247768269845867
0.00046059220411451084,0.2523456270960051,0.03815851347854286,0.4907935985931267
0.0005111433483440171,0.33207527871707726,0.11711506580510327,0.6079645904877361
0.0005672426068491978,0.40757079887978337,0.20301288436704504,0.7244061748087609
0.0006294988990221888,0.4726301939330655,0.28126703357022903,0.8242974812566928
0.0006985879746785249,0.5224309744948217,0.34068488127953517,0.8913307472994085
0.0007752597488629464,0.5556972252842465,0.38008132388309346,0.9201480267987397
0.000860346441668451,0.5716394879021399,0.4018095923657564,0.9105354382018277
0.0009547716114208065,0.5733945325823351,0.4098870830407618,0.873145753969664
0.001059560179277617,0.5651487542863723,0.40737042757146685,0.8230937709883885
0.0011758495540521582,0.5503559264838609,0.3962910093150268,0.7710797084746335
0.0013049019780144017,0.5318539995228422,0.3781595419573723,0.7240003284396985
0.001448118227674533,0.5114283795250139,0.3541574332312693,0.6843286168275058
0.0016070528182616384,0.49155886815154004,0.32698817331445684,0.6531135753518952
0.0017834308769319094,0.4731988009383026,0.2990653687118929,0.6294515281070265
0.0019791668678535573,0.4569532084410409,0.27379331006584334,0.6125938447682785
0.002196385372416547,0.4425669444870404,0.25369926267102016,0.6006378207154603
0.002437444150122222,0.4310054606872786,0.23990393835461207,0.5921029048343998
0.002704959730463137,0.4231337010312198,0.23253045377850148,0.5851055451524343
0.0030018358135755923,0.41952150131626503,0.23132180710816425,0.5796251134393832
0.003331294787934677,0.42009472042856694,0.2355463006176014,0.5767484828246505
0.0036969127071950323,0.42445567856183863,0.24359349841907246,0.5783570831133921
0.00410265810582719,0.43211922713717804,0.2531838234096583,0.5869550169166253
0.004552935074866948,0.44256501705019685,0.26368735997824566,0.60313109620581
0.00505263106533568,0.45596025474842244,0.2771312358120587,0.6257454673240367
0.005607169938205458,0.47196058165941535,0.29473958350505447,0.6532247605656398
0.006222570836730231,0.49046811678811886,0.3152317231322544,0.6862930146387706
0.006905513520162331,0.5099941315088465,0.33550878213766594,0.7242184850633854
0.007663410868007463,0.5286209875195533,0.3531166816332067,0.7639728884365369
0.008504489341802686,0.5431907141552745,0.36529756319873247,0.7993059488064056
0.009437878277775391,0.5523292488397341,0.37060328199976617,0.8260016144852177
0.010473708979594508,0.555017443782474,0.3676894609622356,0.8405747999425679
0.011623224686798541,0.5495189747598929,0.3550092255752557,0.8419230329478465
0.01289890261253308,0.5335881144026091,0.33115502881349823,0.8310607059978553
0.014314589375234785,0.5051469512833324,0.2947619398174853,0.8056423286655917
0.015885651294280528,0.4654161579534946,0.24702422671178487,0.761686759896102
0.01762914118095948,0.41572511271196677,0.1900270370791144,0.6969791809593636
0.01956398343517065,0.3595876446873407,0.1292007108750637,0.6209774252014612
0.021711179456945052,0.30052581005547196,0.07145459822107268,0.5444674936083604
0.02409403560239527,0.24223452002457138,0.02347169126663721,0.47095541603303875
0.026738416158399492,0.18872520461254214,-0.008655551986888213,0.39945458267956474
0.029673024081888724,0.14256005843403236,-0.024934684039765002,0.3306328565156255
0.032929712550971546,0.10591606121142849,-0.02999897591323278,0.2689151846151044
0.036543830709572546,0.0787536490162338,-0.0286697194899789,0.2168542832835012
0.040554607358408275,0.05931999993477585,-0.02496373234945736,0.17520836424816205
0.04500557675700498,0.04557750414143605,-0.02128361498484925,0.142891744509561
0.0499450511585514,0.03590513075686449,-0.018555612266615378,0.1177722654795818
0.05542664520663107,0.0291120079094028,-0.01685360659231904,0.0977194070325985
0.06150985788580504,0.024245097808650584,-0.015722884028570187,0.08147665276623388
0.06826071834272393,0.020598654934438222,-0.01457290623422998,0.06845268954057282
0.0757525025877192,0.017781910037559873,-0.013116234278917097,0.058306456068457885
0.08406652885618333,0.015629930458012923,-0.01134888667341364,0.050865697063034294
0.09329304026284696,0.014001355394237492,-0.009504217669566292,0.0456802479825517
0.10353218432956637,0.012755344649861779,-0.008012341255702207,0.04207810899091104
0.11489510001873086,0.011760673149163965,-0.007128211850623333,0.039302951085352686
0.1275051240713013,0.010936599000418708,-0.006846670039156499,0.03669454429801536
0.1414991297434576,0.01023016580939605,-0.006983629402325135,0.033994001685586334
0.15702901247293774,0.009649270864691308,-0.00720159666842798,0.03171547334205523
0.17426333860096507,0.009191802972141937,-0.007205845163120027,0.030331123251232453
0.19338917504552322,0.008824761406259292,-0.0069830940719485925,0.029598072385105045
0.21461411978584058,0.008495851388573375,-0.006660181056965058,0.02893807230175625
0.23816855519761607,0.008199158735395241,-0.006355920145102727,0.02823993052322573
0.2643081486974108,0.007957608430199643,-0.0061607490113171955,0.02774452006132915
0.29331662783900486,0.007768620810031441,-0.00614272261455546,0.027506922547681424
0.32550885998350565,0.007601049358733487,-0.006358358968644319,0.02731571689132041
0.36123426997094304,0.007413735498064846,-0.00680015021305999,0.026971673109867075
0.40088063288984643,0.007189427972721751,-0.007362273941061937,0.02648181926718077
0.4448782831127585,0.006924638966950795,-0.007874187384139803,0.02586673828959102
0.4937047852839004,0.006664922241596705,-0.008139228985222211,0.025175174209451413
0.5478901179593945,0.006439843712802195,-0.008019879188196946,0.024403092983558916
0.6080224261649427,0.00622963342131652,-0.007646340397863306,0.023587217624099155
0.67475440531107,0.0059854628309213105,-0.007270726521179775,0.022750232417448297
0.748810385759003,0.0057063275659116315,-0.007046214972339598,0.021916007249094923
0.8309941949353403,0.005432262863749694,-0.007022403429693306,0.021110340796281494
0.9221978823334341,0.005181899169576312,-0.007197462368729139,0.020355590430957755
1.0234114021054528,0.004951458708665033,-0.007549372809995697,0.01971830546332929
1.135733358343105,0.00473243109735025,-0.008047977264425347,0.01925582802077709
1.2603829296797273,0.004539699354293364,-0.008651897115434156,0.01904990178570808
1.3987131026472386,0.004372335431309315,-0.00927179172257853,0.019056400388373446
1.552225357427048,0.00420463528057338,-0.009768397691722445,0.019053765134766403
1.7225859653987874,0.004000633123045096,-0.010011864649124232,0.018770188680037003
1.9116440753857036,0.0037644042293766096,-0.010065513370311866,0.018204050607635625
2.121451784910632,0.0035242405325268474,-0.010077773160915338,0.017520864068850533
2.35428641432242,0.003306189715373075,-0.010115458417426016,0.016909035316660593
2.612675225563332,0.0031297680599972066,-0.010157794955865811,0.016529748285313246
2.8994228538828812,0.0029901367596585323,-0.010201014179057808,0.016382465733946597
3.2176417502507353,0.0028631103769583945,-0.01029902222523474,0.016311629845091876
3.5707859649004625,0.0027202911623902906,-0.010449480506400937,0.016144528618591
3.9626886387014784,0.002549742398600055,-0.010560800428153688,0.015824798127719312
4.397603609302721,0.0023449893575170117,-0.010517052981125792,0.015338326846419842
4.880251583654434,0.0021167328673360694,-0.010313287701713072,0.014770707677515557
5.415871378079476,0.0018820682283490844,-0.010001911690005284,0.014233230037526048
6.010276782070388,0.0016635927634631442,-0.009699885094451195,0.013863483700816468
6.669919663030129,0.001484477351018926,-0.00952904260992221,0.013797183820045467
7.401959996915652,0.0013463640506707717,-0.009498470512033409,0.014089511392852095
8.214343584919439,0.0012336245678219086,-0.009524067711608224,0.014685425888703509
9.115888299750837,0.0011290748797076321,-0.00957332099321579,0.015379420224072769
10.11637979766207,0.0010242507770993363,-0.009707198105491789,0.015814699620226903
11.226677735108158,0.0009155286722565605,-0.009865398225085231,0.015719373630763346
12.458833642950081,0.0008066093633782073,-0.009743588883435067,0.015108376900954021
13.826221737646593,0.0006941568356365286,-0.008963691877327077,0.013907825799336172
15.343684089300131,0.0005599132688121775,-0.007389883111996994,0.01176466063270562
17.02769172225898,0.0003895392083528856,-0.005146966575551285,0.008425932946295183
18.896523396912116,0.0002111337140234561,-0.0027816128853958228,0.004635806207830584
20.970464013232306,8.238837267293904e-05,-0.001083202409243423,0.001821365866048158
23.27202478960412,2.2141607600553336e-05,-0.00029081177328044535,0.0004909131960521896
25.826187606826746,4.013610350002863e-06,-5.2692098830969494e-05,8.909511966488868e-05
28.66067616948256,4.863396797301035e-07,-6.383658715447826e-06,1.080120191634438e-05
31.80625692794119,3.924643416265725e-08,-5.151067561538935e-07,8.71805061811188e-07
35.297073027306574,2.1059736957566076e-09,-2.7639908260732803e-08,4.678507278386746e-08
39.17101490809261,7.509795204638243e-11,-9.856127646908171e-10,1.6683866649166276e-09
43.47013158125035,1.7791651210974346e-12,-2.335029020715224e-11,3.952670757707436e-11
48.241087041653735,2.8000972730135953e-14,-3.674923092470121e-13,6.22085155823912e-13
53.535666774107185,2.9273910604111734e-16,-3.841983699826609e-15,6.5036686562826654e-15
59.411339849650396,2.0329741919990456e-18,-2.6681269851080794e-17,4.5165821388628224e-17
65.93188271333541,9.37828764509048e-21,-1.2308301323539518e-19,2.0835395617620454e-19
73.16807143427206,2.873787182490189e-23,-3.7716305976186734e-22,6.384587866465564e-22
81.19844993184009,5.849578145941965e-26,-7.677133352627699e-25,1.2995794560915e-24
90.11018251665037,7.909211432339713e-29,-1.0380247740601073e-27,1.757160717891565e-27
100.0,7.103631743872109e-32,-9.32298468958358e-31,1.5781880255551372e-30
