tau,gamma,gamma_lo,gamma_hi
1e-07,1.3509759410188997e-05,-5.467584870972199e-05,0.00012137510712828466
1.1097524964120721e-07,6.915940729012806e-05,-0.0002793476896319082,0.0006195536943729135
1.2315506032928263e-07,0.00023926828110518717,-0.0009618891167290779,0.0021286028339480745
1.3667163564620074e-07,0.0005725919616248788,-0.0022768083725026476,0.0050124861433452255
1.5167168884709241e-07,0.0009949348313498555,-0.0038646414730236626,0.008414150821678195
1.6831803533309585e-07,0.0013637590200309521,-0.005074326748479983,0.010823350198002788
1.867913599020781e-07,0.001629672898162004,-0.005688856981897941,0.011774091349017388
2.0729217795953698e-07,0.0018291642222911305,-0.005911624103557777,0.01181514031412416
2.300430119772917e-07,0.0019912598747177054,-0.005954127038271206,0.011494932597719729
2.5529080682395163e-07,0.0021063996215940194,-0.005904593623671067,0.011068569303087306
2.833096101839324e-07,0.0021597598985745804,-0.005754836665575939,0.010618259443716756
3.1440354715915e-07,0.002163091636755942,-0.00546912826756327,0.010215558090846422
3.489101213406774e-07,0.0021312240670086956,-0.005045784335504622,0.009881290553587727
3.872038781812557e-07,0.002077446145473478,-0.004627336424762933,0.009577339725077197
4.2970047043208437e-07,0.00200582111425192,-0.004410014753437288,0.009248323984710802
4.768611697714474e-07,0.001916664847789527,-0.004502398095208301,0.008940951055623324
5.291978735958437e-07,0.0018069862081860624,-0.004895968257490813,0.008751547418910127
5.872786613189477e-07,0.0016761748075448245,-0.005406617209442422,0.008678599739087195
6.517339604882421e-07,0.0015319375643733752,-0.005713672264388811,0.008622491914433483
7.232633896483533e-07,0.001388236332462164,-0.005685839338247967,0.008519765006008942
8.026433522257174e-07,0.0012693508554818358,-0.0055015493116233405,0.008406287997431091
8.907354638610439e-07,0.0011784780217755767,-0.0053684875291856995,0.008296534190105368
9.884959046625586e-07,0.0010835902613942445,-0.0053863609592776475,0.008146888925894328
1.096985797892384e-06,0.00095311260658824,-0.005566950615005557,0.007902161438973179
1.217382727739662e-06,0.0008028693336652596,-0.005870183409241232,0.007611549761814343
1.3509935211980278e-06,0.000666428497235781,-0.006226564525673825,0.0073566516994681835
1.499268432786047e-06,0.0005417442849956112,-0.006585046112057942,0.007158161944527348
1.6638168860761274e-06,0.0003991512804132577,-0.006898521247708702,0.006975732866208658
1.8464249428955464e-06,0.0002232742477670154,-0.007137227454886775,0.006761903368553101
2.049074689815846e-06,2.626160447731125e-05,-0.007278098607458197,0.006489617528653339
2.2739657523579273e-06,-0.00017529761876961152,-0.007284905169180281,0.0061556288123161594
2.523539170434766e-06,-0.0003648693710624784,-0.007136268058641919,0.0058107989999940015
2.800503894183631e-06,-0.000531661325573775,-0.006872371039930206,0.0055049934333794015
3.107866187782014e-06,-0.0006744769167495271,-0.006687865782089156,0.005284777937825068
3.4489622604057595e-06,-0.0007936135005215995,-0.006749365091520384,0.005173186480368324
3.827494478516315e-06,-0.0008910542255932771,-0.00698972001440641,0.005160467800841789
4.247571552536894e-06,-0.0009661305525242571,-0.007207614029124939,0.005199474275189428
4.713753134116729e-06,-0.0010206792541846393,-0.00732546903116495,0.0052152532971750975
5.2310993080562585e-06,-0.001055229800775506,-0.007382113020104934,0.005125678756186884
5.805225516094895e-06,-0.0010651164514530837,-0.007405789814572742,0.00493829057042006
6.44236350872137e-06,-0.0010422147386411173,-0.007378598321457391,0.004771059304307555
7.149428986597577e-06,-0.0009853380402521567,-0.007253805326853442,0.004700476440276879
7.934096665797492e-06,-0.0009112178358217151,-0.007006089921928904,0.004709610967822704
8.804883581643465e-06,-0.000830691297578167,-0.006649840829794177,0.004764659759003927
9.771241535346501e-06,-0.0007363750205708796,-0.0063133201601266965,0.004896620801808997
1.0843659686896109e-05,-0.000615541870625107,-0.006122082676160472,0.005135892835088031
1.2033778407775906e-05,-0.00047584832279349887,-0.0060645925559105985,0.00543179667822608
1.3354515629298974e-05,-0.0003411601149171013,-0.006046815994039961,0.005671409124851656
1.48202070579886e-05,-0.00023106033233271175,-0.006051548397403597,0.005797734236224689
1.6446761779946626e-05,-0.00015555727639529198,-0.00613162927285416,0.005826552500233312
1.8251834943190462e-05,-9.723266954880708e-05,-0.006262929121001755,0.005843085392286097
2.0255019392306664e-05,-1.293145546668936e-05,-0.006316978912115922,0.005997806832500747
2.2478058335487252e-05,0.00011493059111327362,-0.0062295422442440965,0.006353990499450454
2.4945081352303165e-05,0.00024510443754718637,-0.00613212767771299,0.006807315242386035
2.7682866303920665e-05,0.00033156478113980357,-0.006163094696987972,0.007200679150595598
3.072112998861759e-05,0.00037745753066560455,-0.006312548703693735,0.007460599602119667
3.409285069746814e-05,0.00040773427319787023,-0.00645572729999688,0.0075565550850650995
3.783462617131933e-05,0.00043112406027098527,-0.006454309047609951,0.007512766803625313
4.1987070844439056e-05,0.000438578172883378,-0.006206733884799517,0.007376471775258011
4.659525668664687e-05,0.0004211858729712198,-0.00580444854225304,0.007204830350103579
5.170920242896755e-05,0.00037526914281580694,-0.005525976887700756,0.007061535531333031
5.7384416483024044e-05,0.0003017302362435855,-0.005548618353182623,0.006959873533122676
6.368249944718586e-05,0.0002082903634663718,-0.005855116458022153,0.006869462829851547
7.067181273927492e-05,0.00010012978902535628,-0.006336094193801412,0.006768136737189279
7.842822061337681e-05,-2.141341063695939e-05,-0.006855125900811159,0.006710043889320891
8.703591361485166e-05,-0.00015678868347139077,-0.007315066226920158,0.006748127797306742
9.658832241158708e-05,-0.00030556657993638663,-0.0077702719819081134,0.00688087297258217
0.00010718913192051276,-0.00047233176110656415,-0.008333638414348397,0.0070606661063997685
0.00011895340673703195,-0.0006812100742371868,-0.009070573266069162,0.007251467297506771
0.0001320088400831418,-0.000961792725610995,-0.009972243887923348,0.007420604761643322
0.00014649713983072864,-0.0013104476850576319,-0.010998945445727897,0.0075413067271355725
0.0001625755666443795,-0.0016852949969988062,-0.01211930958746873,0.007608785369819834
0.00018041864093920718,-0.002078136498282779,-0.013465906280231872,0.007690152512733761
0.00020022003718155845,-0.002535392816066532,-0.01538852313824629,0.007972036383137442
0.0002221946860939524,-0.003081425883357032,-0.018089723541573496,0.008603062861420398
0.0002465811075822604,-0.0036761471623293846,-0.02139198730822842,0.009599456955614415
0.0002736439997074672,-0.004347926107986074,-0.025316378409440097,0.010978244567284558
0.00030367711180354605,-0.005331115160579505,-0.030943302586072585,0.013067237457542385
0.00033700643292719284,-0.0066027665769920925,-0.03994132031611219,0.017041429616695872
0.0003739937302478798,-0.0071211656006918604,-0.05376283415319493,0.026030244538711524
0.0004150404757850477,-0.0059593673637329155,-0.07559560505344218,0.0458709596107867
0.00046059220411451084,-0.005353142122521096,-0.11480413590330396,0.08557815785072803
0.0005111433483440171,-0.004738297660020279,-0.1811594253810377,0.16228003990979145
0.0005672426068491978,0.024419871038884895,-0.25575894320843945,0.31199366413580787
0.0006294988990221888,0.1508352751778651,-0.27170563560220135,0.590693147898057
0.0006985879746785249,0.4257161701531346,-0.1646257239581425,1.034049476381047
0.0007752597488629464,0.8130420619429605,0.06896339895923584,1.5987424458950903
0.000860346441668451,1.2232554304606937,0.3824952965490091,2.185408817392898
0.0009547716114208065,1.556320110102756,0.6759694618857206,2.6717249288866323
0.001059560179277617,1.709877879331757,0.8171985361430274,2.919010730040797
0.0011758495540521582,1.6455945019193112,0.733470639058806,2.8647128185720794
0.0013049019780144017,1.3885761004616257,0.4263746696440464,2.5259105289723363
0.001448118227674533,1.004732103269775,-0.016765511197061975,1.9871160669796686
0.0016070528182616384,0.607332086394049,-0.41381901326234316,1.415481843101875
0.0017834308769319094,0.2788147135016363,-0.6480192220218536,0.9337935779811758
0.0019791668678535573,0.038331939257099726,-0.7598172743889184,0.5692910691672112
0.002196385372416547,-0.12509105102848675,-0.8350652961975932,0.30744009169846903
0.002437444150122222,-0.23438096569264796,-0.9164679172063062,0.12931970178210778
0.002704959730463137,-0.3086501855230724,-1.0048892565973124,0.022331129247143353
0.0030018358135755923,-0.356335674285678,-1.080050537731741,-0.029916932979797344
0.003331294787934677,-0.37610899617366417,-1.1146053767924236,-0.041414027629336866
0.0036969127071950323,-0.36585450871173203,-1.1076336421564867,-0.009285045845468555
0.00410265810582719,-0.3226265265247458,-1.0858562393748281,0.08750146224470089
0.004552935074866948,-0.23443123489336307,-1.069045859908222,0.2733110599515297
0.00505263106533568,-0.07836714951842119,-1.0525881141670403,0.5717060496170111
0.005607169938205458,0.17313436438969365,-0.9881622012893586,1.0273130998116615
0.006222570836730231,0.5336005165495581,-0.7800403750448469,1.694963684807005
0.006905513520162331,0.9825742653920234,-0.37193948367172774,2.545265724176166
0.007663410868007463,1.424749431698524,0.11865441384120679,3.326954482927034
0.008504489341802686,1.7213281156456748,0.4848114535675941,3.6982357145747184
0.009437878277775391,1.7913978334292624,0.6176942678424302,3.576841335832407
0.010473708979594508,1.6121982635178889,0.5099452363526061,3.1015082706163692
0.011623224686798541,1.2386993363968164,0.23962460596496096,2.442370835786841
0.01289890261253308,0.8082114238883467,-0.04321216404722353,1.7669241782042258
0.014314589375234785,0.4337481050359801,-0.23171883285978087,1.1792399139050846
0.015885651294280528,0.17504647417467542,-0.3034119492636064,0.7265263759280366
0.01762914118095948,0.04458188532270406,-0.2809486821502196,0.4181320911885111
0.01956398343517065,0.00013492484972456602,-0.21874153774928815,0.2276843501680766
0.021711179456945052,-0.01124548368397542,-0.16682110642674097,0.12037746051606317
0.02409403560239527,-0.015093854509575991,-0.135000702518679,0.06467391610931032
0.026738416158399492,-0.0159558743820588,-0.109318353740276,0.036644157511565356
0.029673024081888724,-0.014356622163260523,-0.08285715753094633,0.022218172536333684
0.032929712550971546,-0.012049601111392406,-0.06016495220809162,0.014419248285357246
0.036543830709572546,-0.010256411871285153,-0.04474119646959137,0.010049916827277475
0.040554607358408275,-0.009018084245023702,-0.03521862248488706,0.007705098043888854
0.04500557675700498,-0.008022092002303464,-0.029040681824524513,0.0066272078980975134
0.0499450511585514,-0.0071309927219456075,-0.024612377190222894,0.006156397539981703
0.05542664520663107,-0.00631860659818558,-0.021155683434469295,0.005819813101355436
0.06150985788580504,-0.00559292446311883,-0.018388520836924167,0.005503468514143446
0.06826071834272393,-0.004958465469496828,-0.01626430799299134,0.005262506730955928
0.0757525025877192,-0.004411269905166431,-0.014841653251710664,0.00512849295209527
0.08406652885618333,-0.0039445832194423755,-0.014185880029419904,0.0050910933083643225
0.09329304026284696,-0.00354338330542022,-0.01411704110152502,0.005152331154915038
0.10353218432956637,-0.0031917470955628805,-0.01419624834266099,0.0053320833547026245
0.11489510001873086,-0.0028632646601484033,-0.013984413109425898,0.0056210245344937146
0.1275051240713013,-0.0025314982932560914,-0.013182772819121318,0.005974339053197992
0.1414991297434576,-0.002178355386863628,-0.011809487486206091,0.006381774351153681
0.15702901247293774,-0.0018170307785650129,-0.01043865732585463,0.006912718898584313
0.17426333860096507,-0.001462071934494156,-0.009621936877152303,0.007566018402289903
0.19338917504552322,-0.0011136559767532786,-0.009354755702338471,0.008134335600570308
0.21461411978584058,-0.00076655440082639,-0.009303217805682397,0.00834259675162213
0.23816855519761607,-0.00042553746260099606,-0.009184066747033339,0.008201103426633632
0.2643081486974108,-0.00010731446426322446,-0.008820185195672181,0.007938725554182667
0.29331662783900486,0.0001855519076440828,-0.008195980590890998,0.007762531711809277
0.32550885998350565,0.0004591303238587836,-0.007445699659543991,0.007802636042939728
0.36123426997094304,0.0007148020146263671,-0.00669548934021697,0.008056896902436368
0.40088063288984643,0.0009395047761015228,-0.006053905261270238,0.008392875183565213
0.4448782831127585,0.0011217324012484104,-0.00559249127773023,0.008684682998074641
0.4937047852839004,0.0012677289093211825,-0.005361515846309049,0.008932440450573882
0.5478901179593945,0.0013871703943667934,-0.005367110625740851,0.009166405030769879
0.6080224261649427,0.001489630871640155,-0.005530121266044386,0.00939913590135307
0.67475440531107,0.0015761256404685834,-0.005717855652980584,0.009594813732372573
0.748810385759003,0.0016402250097169921,-0.005833042022912685,0.00970168979150684
0.8309941949353403,0.0016689373965919723,-0.005813307291933332,0.009652719902960606
0.9221978823334341,0.0016595638774671614,-0.005655919895371595,0.009420969563052361
1.0234114021054528,0.0016228633860459357,-0.005426661064399912,0.00905007232818415
1.135733358343105,0.0015618189776802323,-0.005202079899676929,0.008615614376869411
1.2603829296797273,0.0014688735824646248,-0.005077827182824597,0.008254277377294708
1.3987131026472386,0.0013292564741098714,-0.005134322889592237,0.008050187181218083
1.552225357427048,0.0011382932094068717,-0.005418766601358673,0.007979129683854053
1.7225859653987874,0.0009022505002823731,-0.0059006691214508345,0.007945620909559007
1.9116440753857036,0.0006528887261181518,-0.00641023415961182,0.007863533943991538
2.121451784910632,0.00042926139388336045,-0.006732540194048874,0.00766920637969651
2.35428641432242,0.00022831218984901617,-0.0068935012600553945,0.00739135461643065
2.612675225563332,1.6324703178454224e-05,-0.0071023929221209385,0.007118780543842326
2.8994228538828812,-0.00022010289809897696,-0.007407563727269759,0.006850507188465843
3.2176417502507353,-0.00045573689725364507,-0.007624892887742444,0.006490613266714499
3.5707859649004625,-0.0006716434064149059,-0.007642569629621938,0.006005477783009839
3.9626886387014784,-0.0008760401027074605,-0.007622142419910577,0.005547083932410863
4.397603609302721,-0.0010765617614102497,-0.007733841049556697,0.00524009941535782
4.880251583654434,-0.0012580753785456761,-0.007952942416987276,0.005015735006045757
5.415871378079476,-0.0013937048130404572,-0.008150652443924851,0.004747811810488419
6.010276782070388,-0.0014804603948673156,-0.008294611189315747,0.004489852982802943
6.669919663030129,-0.0015276573123094428,-0.008424012034002604,0.004402859140557403
7.401959996915652,-0.0015404164219378841,-0.008579293036488727,0.004501377046035047
8.214343584919439,-0.0015170078622232161,-0.008770605842528477,0.004647555742196259
9.115888299750837,-0.0014595071408236501,-0.008953383229750433,0.004778733845844371
10.11637979766207,-0.0013829457688390226,-0.009042285307044522,0.004984354527998166
11.226677735108158,-0.0012955805155910602,-0.008979164133871297,0.005323011518975144
12.458833642950081,-0.0011937702060895274,-0.00879545344809233,0.005688907780360629
13.826221737646593,-0.0010589531909021336,-0.008389742216293046,0.0058188749538298536
15.343684089300131,-0.0008662479375434281,-0.0073814686653522095,0.0053503777298292915
17.02769172225898,-0.0006055663275845148,-0.005442684819487001,0.004039464518758595
18.896523396912116,-0.00032868618420230024,-0.0030430320224060004,0.0022838363417638837
20.970464013232306,-0.0001283135232779628,-0.0012045995419246052,0.0009084728008325425
23.27202478960412,-3.4488631219321996e-05,-0.00032572822655426055,0.00024615379611556164
25.826187606826746,-6.252071814997433e-06,-5.9195416159395944e-05,4.477142631564233e-05
28.66067616948256,-7.575946759620139e-07,-7.180337949543207e-06,5.432565017414684e-06
31.80625692794119,-6.113652744891207e-08,-5.79681157161371e-07,4.3864071250042363e-07
35.297073027306574,-3.2806118667520573e-09,-3.111117635587322e-08,2.3542922591889884e-08
39.17101490809261,-1.1698509865951258e-10,-1.1094858324078825e-09,8.396059273249561e-10
43.47013158125035,-2.771525809809359e-12,-2.6285856945193404e-11,1.9892063603708723e-11
48.241087041653735,-4.3619017458330503e-14,-4.1369850144255456e-13,3.130712962655022e-13
53.535666774107185,-4.560196303159446e-16,-4.325074303565545e-15,3.2730566795389327e-15
59.411339849650396,-3.1669023760949654e-18,-3.0036235876300014e-17,2.2730329021721035e-17
65.93188271333541,-1.4609197670106752e-20,-1.3855988610260838e-19,1.0485709943133942e-19
73.16807143427206,-4.476694129008034e-23,-4.245889670188887e-22,3.2131357204756044e-22
81.19844993184009,-9.112286518903046e-26,-8.642486349649803e-25,6.540321316651017e-25
90.11018251665037,-1.2320717661455175e-28,-1.1685501681766746e-27,8.843165484357182e-28
100.0,-1.1065811284439423e-31,-1.0495294389520849e-30,7.942459659088905e-31
