tau,gamma,gamma_lo,gamma_hi
1e-07,1.0683043858471977e-05,-3.7327868049266856e-05,7.480013522768417e-05
1.1097524964120721e-07,5.46809456247529e-05,-0.0001907442644698393,0.00038201806698292336
1.2315506032928263e-07,0.00018910587277269227,-0.0006570372632174126,0.0013141779224571488
1.3667163564620074e-07,0.00045206699045181485,-0.0015563969552641896,0.003103665731101888
1.5167168884709241e-07,0.0007829845088744035,-0.0026448740225521673,0.005240835445630992
1.6831803533309585e-07,0.0010626555924413796,-0.0034732262249323707,0.006805182848321396
1.867913599020781e-07,0.001236060461010298,-0.0038717318765845933,0.007468502512323326
2.0729217795953698e-07,0.001310129518301764,-0.0039619405833326415,0.007496570046197905
2.300430119772917e-07,0.0013015914488341126,-0.003949099705300212,0.0072394003367416086
2.5529080682395163e-07,0.0012220725094320819,-0.004041355034801552,0.006972264383813856
2.833096101839324e-07,0.0010835725665888636,-0.004299735583248988,0.006804049588821245
3.1440354715915e-07,0.0009169303104733852,-0.004575059144376068,0.00668236696311216
3.489101213406774e-07,0.0007487577222201806,-0.004724111443562965,0.006519048823272749
3.872038781812557e-07,0.0005893736463731553,-0.004831037766685401,0.0063316019752269
4.2970047043208437e-07,0.0004456698055583001,-0.005032068451287806,0.006186713587593723
4.768611697714474e-07,0.00033879502948396846,-0.005267645503608775,0.0061400839416625285
5.291978735958437e-07,0.0002986541589472087,-0.005351510987356898,0.006213101900776249
5.872786613189477e-07,0.0003265749076154914,-0.005278192570529351,0.006371554896896996
6.517339604882421e-07,0.00039457416263746813,-0.0052312219800306125,0.0065386510487663325
7.232633896483533e-07,0.000479422609933646,-0.005282067933484671,0.0066773713277155896
8.026433522257174e-07,0.0005705233704215713,-0.005302590581269747,0.006818960955053529
8.907354638610439e-07,0.0006573060619487035,-0.005186207825065109,0.006957970879984171
9.884959046625586e-07,0.0007217599554933459,-0.005023367296179224,0.0070169308465392105
1.096985797892384e-06,0.0007538398488516088,-0.004934164224647819,0.006932360812512084
1.217382727739662e-06,0.0007790382263987649,-0.0049163466965586365,0.006812398715705865
1.3509935211980278e-06,0.0008356515577669615,-0.004891574061401684,0.006817083816525289
1.499268432786047e-06,0.0009364004999413524,-0.004834732208285433,0.006969743725645032
1.6638168860761274e-06,0.0010649549388039117,-0.004782601234980924,0.007166015015972706
1.8464249428955464e-06,0.0011890016031761792,-0.004804207668843288,0.007309311982543209
2.049074689815846e-06,0.0012678232891586655,-0.0049742972074787485,0.00735143610593367
2.2739657523579273e-06,0.001292543854430101,-0.005267554644167781,0.007303627356213868
2.523539170434766e-06,0.0013070826542002226,-0.005521822359554242,0.007261304994964027
2.800503894183631e-06,0.0013592770322983982,-0.005596578404032305,0.007296861063939268
3.107866187782014e-06,0.0014730863422833412,-0.005520164837585591,0.0074215515210530455
3.4489622604057595e-06,0.0016540464012394954,-0.005363776561929696,0.007614095450601068
3.827494478516315e-06,0.0018966453543684406,-0.005144398842536424,0.007891859940551095
4.247571552536894e-06,0.0021892992692783635,-0.004830399681040704,0.008279829118206985
4.713753134116729e-06,0.002530339490466926,-0.004415700988502587,0.00877800670020793
5.2310993080562585e-06,0.0029215638342592505,-0.003930568347875378,0.009354634281958993
5.805225516094895e-06,0.0033697317107092136,-0.003405741805785553,0.010001503187453126
6.44236350872137e-06,0.0038778863867762253,-0.0028732171109572486,0.010730234408769898
7.149428986597577e-06,0.004443017542973827,-0.002317452787362421,0.011499814615574352
7.934096665797492e-06,0.005053625786598428,-0.0016797007257292383,0.012202729322107897
8.804883581643465e-06,0.005696570403038796,-0.0009241949325616996,0.012768657824075007
9.771241535346501e-06,0.006380223097964122,-0.00012197023562784148,0.013331102950393813
1.0843659686896109e-05,0.007108001435421782,0.0006322808424001387,0.014057587011197177
1.2033778407775906e-05,0.00788635856960654,0.0013430467186044833,0.014998703384219917
1.3354515629298974e-05,0.008700494519492091,0.0020553184702368117,0.016083511118005062
1.48202070579886e-05,0.009538529342759823,0.002746320423708821,0.01724647030366327
1.6446761779946626e-05,0.01037638550017939,0.003309965542628592,0.018428420519503105
1.8251834943190462e-05,0.011205719077564343,0.003697919997862283,0.01961112987027289
2.0255019392306664e-05,0.012038294212322663,0.003970994555660284,0.020815925924502897
2.2478058335487252e-05,0.012876532742928255,0.004250981523729026,0.022017283845573454
2.4945081352303165e-05,0.013729088812064796,0.0047094119612352495,0.02315347103372578
2.7682866303920665e-05,0.014579129465794104,0.005443575608571407,0.024133520588684915
3.072112998861759e-05,0.01543205607407548,0.006348731581628804,0.02499681158156452
3.409285069746814e-05,0.01627427373143037,0.007217791831659187,0.02580679000814793
3.783462617131933e-05,0.017130459246549583,0.007940646509136994,0.026683313307924346
4.1987070844439056e-05,0.018023553932219237,0.008469702633888448,0.027725411024046947
4.659525668664687e-05,0.018993277502539613,0.008800980007719093,0.02897758387561769
5.170920242896755e-05,0.020086166246836994,0.008964497560471083,0.030442170216701776
5.7384416483024044e-05,0.021351792265507576,0.009060398314299483,0.03219825884701954
6.368249944718586e-05,0.022864514178642152,0.009312334313627449,0.034473497079983505
7.067181273927492e-05,0.024680134199212368,0.009939359554515461,0.03741961609457957
7.842822061337681e-05,0.026872218713270148,0.011063859044044283,0.04105192589945198
8.703591361485166e-05,0.029487783774496575,0.01254766686300237,0.04535671885278116
9.658832241158708e-05,0.032632031367261935,0.013805735754301227,0.050604855391351976
0.00010718913192051276,0.03644648157799992,0.014218654482633224,0.05718844630059757
0.00011895340673703195,0.041270916162021484,0.014138678958108468,0.06558003501699593
0.0001320088400831418,0.04750679420535067,0.014791195385786219,0.07607374589975784
0.00014649713983072864,0.05542974534223995,0.017442469287749382,0.08861191212531691
0.0001625755666443795,0.06510235091618194,0.023077396069047563,0.10266235474333345
0.00018041864093920718,0.07678796431128464,0.03177494746767596,0.1181622852792757
0.00020022003718155845,0.0910243396823141,0.04236472087140994,0.1359005629249537
0.0002221946860939524,0.10826953969379145,0.05425935965624847,0.15693048521316807
0.0002465811075822604,0.12860369891692042,0.06867114884755313,0.18225287190324077
0.0002736439997074672,0.15163501935856927,0.08676294393205079,0.21169443411821562
0.00030367711180354605,0.17691029777066605,0.10745785681927869,0.24322503715062596
0.00033700643292719284,0.2036406040374451,0.12867374220681094,0.2738841073230416
0.0003739937302478798,0.23190102475685875,0.15142661059616025,0.30442780724672064
0.0004150404757850477,0.2617838996559653,0.17880409532244182,0.33786960285352685
0.00046059220411451084,0.2930472311201287,0.21181878293481896,0.3752833163443605
0.0005111433483440171,0.3244869607159552,0.2476091769654098,0.41416646344996977
0.0005672426068491978,0.3545859445671833,0.282369457650161,0.4512544184313873
0.0006294988990221888,0.3822251283890853,0.3127538942314135,0.4844164343902928
0.0006985879746785249,0.4058304837971871,0.3362561918981616,0.5113195917290098
0.0007752597488629464,0.42486903218476063,0.3536150592108865,0.5312539562290347
0.000860346441668451,0.4383285458756513,0.36581863854853003,0.5435010963510872
0.0009547716114208065,0.44660183907340534,0.3736727417631415,0.5503252748032971
0.001059560179277617,0.4499768371981146,0.37690241714429873,0.5542511008869865
0.0011758495540521582,0.4488112747310758,0.3756411434704095,0.5554932465381647
0.0013049019780144017,0.4434070175400119,0.3703569688639718,0.5517989576190454
0.001448118227674533,0.433937447774097,0.3607487586498925,0.541087466186
0.0016070528182616384,0.42169198423673515,0.34663386490568293,0.5240519422461759
0.0017834308769319094,0.40752072439773135,0.3283576816630357,0.502724576612791
0.0019791668678535573,0.39330089268035523,0.3093201356238204,0.48271846475770913
0.002196385372416547,0.3801952267208115,0.2925128411315685,0.46768179015635913
0.002437444150122222,0.369405851494543,0.2791241181357156,0.456607968250717
0.002704959730463137,0.3614489005190996,0.26905305649191147,0.44617529372721454
0.0030018358135755923,0.35666662596578746,0.2627433251502292,0.43688815655360547
0.003331294787934677,0.35511627707870747,0.2611514559989137,0.43193889471449176
0.0036969127071950323,0.3568550933347767,0.2647845004230662,0.43294019749107027
0.00410265810582719,0.3620580066438003,0.2734409785747752,0.4394144656716864
0.004552935074866948,0.3703477348176465,0.28586329760668894,0.4502028160566117
0.00505263106533568,0.3810745205130895,0.2998169774453221,0.46481823023433105
0.005607169938205458,0.3928722767302021,0.31303152783542443,0.48253940715284804
0.006222570836730231,0.40471028834668366,0.3248762304686168,0.5030242717227233
0.006905513520162331,0.41497090804967185,0.3348391530376558,0.5236129383296283
0.007663410868007463,0.4231031120078885,0.34319907962866136,0.5392894185027387
0.008504489341802686,0.42819204052894383,0.34952369636653374,0.5442200438876442
0.009437878277775391,0.4298722042199106,0.3529117819364905,0.5402443713892109
0.010473708979594508,0.4276045484738296,0.35164693562460153,0.5341023721219575
0.011623224686798541,0.42083711856214645,0.34458920558202183,0.5281135711264499
0.01289890261253308,0.40956094482724387,0.3319034248110919,0.519057160716441
0.014314589375234785,0.3937093012659867,0.3140482860697746,0.5031509892202933
0.015885651294280528,0.37474414993237515,0.29308225187249387,0.4807036760895223
0.01762914118095948,0.35334161857381735,0.27052773984217154,0.453110748350738
0.01956398343517065,0.3302157286236583,0.24788311061175677,0.4240333400265063
0.021711179456945052,0.3052660440833239,0.22537885049903947,0.39589913656608716
0.02409403560239527,0.2787594974127802,0.2017383243130579,0.36826609075419164
0.026738416158399492,0.2510694366873876,0.1751300099394302,0.33891622077903
0.029673024081888724,0.22271415507382397,0.14572539413840532,0.3073672597616263
0.032929712550971546,0.19479246019954483,0.1161926895403224,0.2753934580481299
0.036543830709572546,0.1679668227692001,0.08904149164168758,0.24406368581472426
0.040554607358408275,0.143205424536642,0.0667298386889623,0.21411719010036376
0.04500557675700498,0.1208448019562698,0.05025323077126823,0.18555986514025105
0.0499450511585514,0.10107103563842913,0.03878371265869866,0.1589467808781681
0.05542664520663107,0.08385353653785783,0.030763202337302394,0.13474143504729844
0.06150985788580504,0.0693040801069996,0.024476609229350077,0.11362588902221286
0.06826071834272393,0.05753118441999129,0.018662532775614173,0.09613637474091173
0.0757525025877192,0.04819986852466444,0.013286478875144158,0.08201062855129745
0.08406652885618333,0.04081719581028232,0.009156448906799704,0.07060604818116147
0.09329304026284696,0.03496399597926636,0.00671514392142037,0.06121531824111278
0.10353218432956637,0.030443812806581906,0.005887258370291654,0.05340175098866576
0.11489510001873086,0.02700115526449114,0.0061844628562752555,0.046926641502911474
0.1275051240713013,0.02431821220485021,0.006759739301489356,0.04188694538823684
0.1414991297434576,0.022107638443864455,0.007001598403081639,0.03822428608736808
0.15702901247293774,0.020260607674110476,0.006864770523081496,0.035561862959980775
0.17426333860096507,0.018710026267059525,0.0064762322593489565,0.03337458625354384
0.19338917504552322,0.01739017859442901,0.005863722719121405,0.03129015906927655
0.21461411978584058,0.016223217152352344,0.005021729203729669,0.02910667004302193
0.23816855519761607,0.015183621567047901,0.004149006664497912,0.026994680531040486
0.2643081486974108,0.014285320526606658,0.0035707021055338003,0.02533318593710319
0.29331662783900486,0.013518429082858474,0.0033360791119607116,0.024201358577335644
0.32550885998350565,0.01286020789397406,0.0032023505144038993,0.02336016086371002
0.36123426997094304,0.012268988314619846,0.0029920562751790886,0.022547569100896423
0.40088063288984643,0.01172652622205176,0.00273981030210649,0.021673727650896046
0.4448782831127585,0.011205710975623456,0.0025065651805693816,0.02071759903274459
0.4937047852839004,0.010710284318335454,0.002264430516704999,0.01978387652497318
0.5478901179593945,0.010235550524284775,0.0019543667612468823,0.01897946756443983
0.6080224261649427,0.009790939544598332,0.0015857097285220613,0.01840210141444201
0.67475440531107,0.009378520817951378,0.001215753628200395,0.01807179061559036
0.748810385759003,0.008996828346908575,0.0008963591759940378,0.01786200253471515
0.8309941949353403,0.008641931805087755,0.0006676903810317404,0.017562700204197545
0.9221978823334341,0.008305336746459878,0.0005296863987086956,0.017147875500832768
1.0234114021054528,0.007987436691339908,0.0004432697117335554,0.016813014405483176
1.135733358343105,0.007669148763866897,0.0003584737367576695,0.016589297360755022
1.2603829296797273,0.007331716230229589,0.00022579496863475333,0.016233723873522114
1.3987131026472386,0.006953032144829417,9.410478258193558e-06,0.015541912342964006
1.552225357427048,0.006552074794882887,-0.0002937290620638013,0.014720905668175435
1.7225859653987874,0.006144533555275235,-0.0006754852226377529,0.014056692124432764
1.9116440753857036,0.005727736562895245,-0.0011315500928150905,0.01355964051560723
2.121451784910632,0.005284285068151023,-0.0016491612231385037,0.013046535075044536
2.35428641432242,0.004814227680903246,-0.00219523179742147,0.01244055737752779
2.612675225563332,0.004342831567628318,-0.0027255573957062685,0.011810491082416259
2.8994228538828812,0.003884140677863087,-0.003280020865299781,0.011233998271202167
3.2176417502507353,0.003447399416889349,-0.003974722384873741,0.01077021558968607
3.5707859649004625,0.0030219335571332307,-0.004814223911053702,0.010376786776518137
3.9626886387014784,0.0025923814625043533,-0.00557938090882478,0.009920929752590964
4.397603609302721,0.0021499478533973325,-0.00605617242038026,0.009313889750222137
4.880251583654434,0.0017221028070674947,-0.006296636159115554,0.008708750118019467
5.415871378079476,0.001341243957353571,-0.0064786760573081505,0.00830790244424577
6.010276782070388,0.0009973193756471685,-0.006762581806986756,0.00810305586536721
6.669919663030129,0.0006598255892769147,-0.007235790678651317,0.007931233789376697
7.401959996915652,0.00032590012817423116,-0.007854356632301914,0.007700039582174479
8.214343584919439,3.156300072949185e-05,-0.008461139034191762,0.007432702250850617
9.115888299750837,-0.0001986943772919068,-0.008963637019121055,0.007194261695851115
10.11637979766207,-0.0003646449472623579,-0.009385427169158606,0.0070737448236699125
11.226677735108158,-0.0004766385202566668,-0.009722535626736877,0.007083433957419145
12.458833642950081,-0.0005487255781019326,-0.009862923284419924,0.007097582292754501
13.826221737646593,-0.000579397812538013,-0.00953200796602776,0.006857525580303485
15.343684089300131,-0.0005422442219517892,-0.008353532422391941,0.006035290293033095
17.02769172225898,-0.00041347716742303874,-0.006112149563650029,0.004433689215494196
18.896523396912116,-0.00023492344409765974,-0.003399539918289984,0.0024718470591860056
20.970464013232306,-9.365351473220012e-05,-0.0013422200873386822,0.000977051716672954
23.27202478960412,-2.5399195973764606e-05,-0.0003625238556978608,0.00026402446549258753
25.826187606826746,-4.621464679885433e-06,-6.585059338717063e-05,4.796852141493347e-05
28.66067616948256,-5.608555411777811e-07,-7.986021014063944e-06,5.817863940506905e-06
31.80625692794119,-4.528791940054311e-08,-6.446733476969746e-07,4.6966441926397107e-07
35.297073027306574,-2.430775706199412e-09,-3.459814010871144e-08,2.5206161378670737e-08
39.17101490809261,-8.668910033583436e-11,-1.233821471457162e-09,8.988944924362575e-10
43.47013158125035,-2.0538591432070755e-12,-2.923145087736266e-11,2.1296476425136602e-11
48.241087041653735,-3.232472234953899e-14,-4.600565685196209e-13,3.3517299276587033e-13
53.535666774107185,-3.3794449431556017e-16,-4.8097275812734264e-15,3.504115576249679e-15
59.411339849650396,-2.3469167904707578e-18,-3.3401983542295104e-17,2.433493923702394e-17
65.93188271333541,-1.0826544334008889e-20,-1.540863638002342e-19,1.1225927718230554e-19
73.16807143427206,-3.3175777413330506e-23,-4.721667147895761e-22,3.439960169890239e-22
81.19844993184009,-6.752912639827763e-26,-9.61092870516934e-25,7.002020946418964e-25
90.11018251665037,-9.130610183908484e-29,-1.2994932005807015e-27,9.467429138327122e-28
100.0,-8.200627184381645e-32,-1.1671354825807915e-30,8.503139908156752e-31
