tau,gamma,gamma_lo,gamma_hi
1e-07,5.211240021635507e-06,-3.1999222693206455e-05,6.14472783687944e-05
1.1097524964120721e-07,2.6629419466691462e-05,-0.00016349418037120704,0.00031309443912119484
1.2315506032928263e-07,9.173374239084345e-05,-0.0005630058234454348,0.001071089564198204
1.3667163564620074e-07,0.00021739992094796877,-0.0013328386065957147,0.0024973667855119285
1.5167168884709241e-07,0.00037039271426751686,-0.0022628422111224335,0.004105972438400698
1.6831803533309585e-07,0.0004920474062978131,-0.002971101197734532,0.005098466546166378
1.867913599020781e-07,0.0005694665932032908,-0.0033266735129775286,0.005337857163987782
2.0729217795953698e-07,0.0006298954808250615,-0.0034447102951723364,0.005299782986863876
2.300430119772917e-07,0.0006849859150257897,-0.0034576300215827145,0.005300492376099344
2.5529080682395163e-07,0.0007153812441972031,-0.0034455008351682564,0.005285122202601692
2.833096101839324e-07,0.0007084327782262983,-0.003441949869957313,0.00515769955772095
3.1440354715915e-07,0.000685202297402755,-0.0034633333066389645,0.005010846231640415
3.489101213406774e-07,0.000670789338263672,-0.0035148467261536228,0.00497587148641646
3.872038781812557e-07,0.0006711672159101011,-0.0036040179727050165,0.005088444227111291
4.2970047043208437e-07,0.0006797843433893782,-0.0037165114096941627,0.005282284143132463
4.768611697714474e-07,0.0006923048392411061,-0.0037986936125121917,0.005411080793547065
5.291978735958437e-07,0.0007105533921057133,-0.003786051508310635,0.005316954121777919
5.872786613189477e-07,0.0007479785428932093,-0.0037137015863658125,0.005048284085550861
6.517339604882421e-07,0.0008260770734168069,-0.003697639300989289,0.0048540003298978025
7.232633896483533e-07,0.0009519879506923291,-0.003739703067136255,0.004888726657114653
8.026433522257174e-07,0.001109594632023413,-0.003679926160926135,0.005122203622522196
8.907354638610439e-07,0.001281722747997544,-0.003419986779558988,0.005467660180855568
9.884959046625586e-07,0.001463645753118312,-0.0030970412618709893,0.005864475107668339
1.096985797892384e-06,0.0016543628212105537,-0.00286945488469797,0.006256889165383939
1.217382727739662e-06,0.0018552062232783117,-0.0027054590991560557,0.0065951880736005815
1.3509935211980278e-06,0.002065522951292735,-0.002473404089220706,0.006834800279267196
1.499268432786047e-06,0.0022931705533655515,-0.002137881965851335,0.007015724997388357
1.6638168860761274e-06,0.002544200508215833,-0.0017709845526013063,0.007231482380630164
1.8464249428955464e-06,0.0028129853498955726,-0.0014749380160094556,0.007550187079543259
2.049074689815846e-06,0.0030779464415886604,-0.0013492954036786505,0.007987273312973817
2.2739657523579273e-06,0.0033261935465200925,-0.0013794221066416497,0.008485788195830022
2.523539170434766e-06,0.0035662520970751593,-0.0013947632404828316,0.008924355141912867
2.800503894183631e-06,0.0038045439820572004,-0.0012494882194977865,0.009226929206667633
3.107866187782014e-06,0.004043066235425785,-0.0009676606122942749,0.009487049553156423
3.4489622604057595e-06,0.004270443712798331,-0.0006426176268810106,0.009792531847779739
3.827494478516315e-06,0.0044799961911640195,-0.000338060914266451,0.010082043080225292
4.247571552536894e-06,0.004659504884621784,-8.651145341776216e-05,0.01022610129041709
4.713753134116729e-06,0.004809509477333118,0.00010618217814159214,0.010297136465450258
5.2310993080562585e-06,0.004934925480706726,0.00023779820855618946,0.010504547689514395
5.805225516094895e-06,0.005040928330029848,0.00028898427763420317,0.010853061228818617
6.44236350872137e-06,0.005135163921100298,0.00022397033995352457,0.011089476475033513
7.149428986597577e-06,0.005218928046801571,4.345172809902444e-05,0.011051144048726865
7.934096665797492e-06,0.005301636652904503,-0.0001750661066423546,0.010889617377125637
8.804883581643465e-06,0.005390210643544311,-0.0003425777538211289,0.010810732721314305
9.771241535346501e-06,0.005510472321213333,-0.00040717123455634766,0.010926697864079694
1.0843659686896109e-05,0.005682882728197778,-0.0003393751979152186,0.011245217867938606
1.2033778407775906e-05,0.005920822730941743,-0.00013792870584689897,0.011709395013523532
1.3354515629298974e-05,0.006223322108761665,0.00016780826583972754,0.012231828173660513
1.48202070579886e-05,0.006592718863064337,0.000496529029239721,0.012815013933893435
1.6446761779946626e-05,0.007029242525514902,0.000733818746398252,0.013530252490471947
1.8251834943190462e-05,0.007532322884133191,0.0008737364870620207,0.014414314527071329
2.0255019392306664e-05,0.008101940554534462,0.0010483124539032698,0.015439688496866093
2.2478058335487252e-05,0.00874010522845993,0.0013576774591218888,0.016561636122220887
2.4945081352303165e-05,0.009468576816456475,0.0017645721375794802,0.017782918025903083
2.7682866303920665e-05,0.010294537837289251,0.0021702211933207474,0.01911557939597424
3.072112998861759e-05,0.011221043660118852,0.002488056416917092,0.020631038067639017
3.409285069746814e-05,0.012238319451858841,0.002677338863821735,0.022359692180492798
3.783462617131933e-05,0.01338986569376415,0.002833356082585873,0.024274143960444035
4.1987070844439056e-05,0.01472316025279443,0.0031391723503664723,0.026274269111181435
4.659525668664687e-05,0.016256600707370155,0.003726902286547222,0.02837913926239959
5.170920242896755e-05,0.017960936955090587,0.004643592648430129,0.030720818335028228
5.7384416483024044e-05,0.01985370821286681,0.005856447386452957,0.03347207872447446
6.368249944718586e-05,0.022028271460449812,0.007234840473571283,0.036823394774474966
7.067181273927492e-05,0.024552479239381905,0.00866478273580273,0.04086798689073574
7.842822061337681e-05,0.027447447719664047,0.01012917947553525,0.04560744363013395
8.703591361485166e-05,0.030707423560863954,0.011704321838883324,0.05105438571588189
9.658832241158708e-05,0.03445058802972837,0.01361772953278413,0.05753503952823576
0.00010718913192051276,0.03877139416863217,0.01605386807729977,0.0653108897811486
0.00011895340673703195,0.04371837236362825,0.018888520592260063,0.07425148791729541
0.0001320088400831418,0.049261101970579604,0.021775939415751084,0.08380821315804794
0.00014649713983072864,0.05563483760480989,0.02475997156536263,0.0939438219697444
0.0001625755666443795,0.06329450781135285,0.028304025393010884,0.10513223571383858
0.00018041864093920718,0.07261496062926447,0.03276667473002011,0.11789380070351357
0.00020022003718155845,0.08376480166829962,0.03822848608119449,0.13263580098102815
0.0002221946860939524,0.09701388295427676,0.04503813205650663,0.1497298019735223
0.0002465811075822604,0.11307009020565056,0.054319558464686286,0.16993168562759736
0.0002736439997074672,0.13244016406269196,0.06732325530790871,0.19395327058478365
0.00030367711180354605,0.15498558025756334,0.08449541165442374,0.22257203233520045
0.00033700643292719284,0.17979506490726163,0.1051614432382356,0.2554674940146562
0.0003739937302478798,0.20639722009688777,0.12759518111544563,0.2906681355068788
0.0004150404757850477,0.23418706884151178,0.14932442805088098,0.324571425097472
0.00046059220411451084,0.2627559430149789,0.17051332451305895,0.35659611378363787
0.0005111433483440171,0.2914724435548589,0.19401127861506545,0.3895465088528154
0.0005672426068491978,0.319654235441361,0.22113627193740557,0.42504619494716095
0.0006294988990221888,0.3469880510262359,0.24941385117105497,0.46186615042222756
0.0006985879746785249,0.3724843906857614,0.27514823149238715,0.49785394301200764
0.0007752597488629464,0.39531530367987383,0.2966725672824653,0.5334714259883367
0.000860346441668451,0.41354865341865754,0.31267340878197414,0.5669847700235507
0.0009547716114208065,0.42590136829330527,0.32274616876498685,0.591631852885173
0.001059560179277617,0.4306825438288754,0.32615142080045156,0.5976951869378095
0.0011758495540521582,0.42755890784673733,0.32285323515887265,0.5858719647114939
0.0013049019780144017,0.4173784280031577,0.3133363343569209,0.5674212230587128
0.001448118227674533,0.4010126987025536,0.2977132182683207,0.5524073687830492
0.0016070528182616384,0.3801984674680212,0.2765091796283604,0.5461197479498027
0.0017834308769319094,0.3551985421353281,0.24958979383687135,0.5428323163007751
0.0019791668678535573,0.3259871984614552,0.21782357229777388,0.5242972429940631
0.002196385372416547,0.2922663402705497,0.18249496282213612,0.4756059801991217
0.002437444150122222,0.25627472845009625,0.14696860023754368,0.4071292615587443
0.002704959730463137,0.22094908409342892,0.11506792091188638,0.33959869053520547
0.0030018358135755923,0.1878450639188659,0.08821738130621966,0.2824895342770118
0.003331294787934677,0.15775020949221036,0.0664515404508525,0.23573063328953223
0.0036969127071950323,0.13099361136609805,0.04932773572903848,0.19709115326201423
0.00410265810582719,0.10835196132445704,0.036690265693722836,0.16576039126252567
0.004552935074866948,0.0898247321784939,0.027941561163706226,0.14057683144671926
0.00505263106533568,0.07479616672144766,0.021886124286838282,0.11987312322037989
0.005607169938205458,0.06250152406798729,0.01752010925108398,0.10217460790019052
0.006222570836730231,0.0525971583228391,0.014502265266331789,0.08722887740089844
0.006905513520162331,0.04486297886248718,0.01272683988543664,0.0751066002863782
0.007663410868007463,0.038856835253278606,0.011769512758421785,0.06539641307323961
0.008504489341802686,0.034065545060998625,0.01104048344751227,0.05745173258264366
0.009437878277775391,0.030146267074724082,0.010211827669057382,0.05086248783247523
0.010473708979594508,0.02696280976771962,0.009251961482756607,0.045537234600231125
0.011623224686798541,0.024376936960291102,0.008367861454846647,0.041284051186419306
0.01289890261253308,0.022258664993687494,0.007929541458858793,0.03782972290413518
0.014314589375234785,0.020472591207949947,0.007997255044090943,0.034894194794016474
0.015885651294280528,0.018957304699419312,0.00813230293091972,0.03236620441776026
0.01762914118095948,0.017638577499018475,0.007909757426193391,0.030129798487098416
0.01956398343517065,0.016456365560890366,0.007363646602553013,0.028095104460499676
0.021711179456945052,0.015346279402864153,0.006716476287942442,0.026165094613765767
0.02409403560239527,0.014311066306015691,0.006112180733534433,0.02436374912515298
0.026738416158399492,0.013379367278707241,0.0055954883138264406,0.022761811402479012
0.029673024081888724,0.012550016415087226,0.0051452329367640435,0.02136650866958729
0.032929712550971546,0.0118019038094768,0.004712557960686061,0.020148099679824286
0.036543830709572546,0.01110797347654481,0.004255570766094785,0.019091749905645074
0.040554607358408275,0.010472534513063025,0.0037690520157239726,0.018259824178660157
0.04500557675700498,0.009886058583597071,0.0032752805244962353,0.017651855741921612
0.0499450511585514,0.009348127382052113,0.0028428757803784202,0.017191011944982532
0.05542664520663107,0.008836369569041703,0.0025091953352689776,0.01673248630872654
0.06150985788580504,0.008334067947941053,0.002223877290470404,0.01615958723621913
0.06826071834272393,0.007822431453106078,0.0019176884766475798,0.015376135844545792
0.0757525025877192,0.00731862238117138,0.0016099483101101523,0.014427928709413087
0.08406652885618333,0.006854255794807316,0.001370370587480416,0.01344844376609899
0.09329304026284696,0.006428754736025071,0.0011891794826155051,0.012558976628240924
0.10353218432956637,0.006019625743558403,0.0009796132817727042,0.01185637462432068
0.11489510001873086,0.005612720903582525,0.0006964790210441309,0.011315067834413689
0.1275051240713013,0.005234132632424443,0.0003852988312957994,0.010811768309693003
0.1414991297434576,0.004900467157883447,0.00010411648668742427,0.010275286946791745
0.15702901247293774,0.004614319816716676,-0.00011909070213463159,0.009826852463873131
0.17426333860096507,0.004356403665913739,-0.00029564641784398716,0.009571685173184886
0.19338917504552322,0.00410206027545842,-0.000491898641028324,0.009431573745681043
0.21461411978584058,0.003828444480882385,-0.0007735905897544187,0.009242341268781576
0.23816855519761607,0.003547743382425538,-0.0011154830233001984,0.008984055719535634
0.2643081486974108,0.0032936834357689903,-0.00142309244120107,0.008733097833152055
0.29331662783900486,0.0030725368964226907,-0.0016493809572654943,0.008482566229164672
0.32550885998350565,0.0028634929891569647,-0.0018054855951873054,0.008129181330979549
0.36123426997094304,0.002642317204797274,-0.0019101347463267985,0.007612663035155779
0.40088063288984643,0.0024048187021513076,-0.0019754252917437306,0.007010794399603016
0.4448782831127585,0.002155220732925138,-0.0020230414623943543,0.006411067954503588
0.4937047852839004,0.0019150634604690393,-0.0021101259295763734,0.005875045568880979
0.5478901179593945,0.001700281479938005,-0.002278552810110584,0.005434201245713687
0.6080224261649427,0.0015052351599181238,-0.002499213830693097,0.005112972079520007
0.67475440531107,0.0013127963691675784,-0.00270914198430366,0.00491803181915673
0.748810385759003,0.0011158250532458266,-0.0029045671211406655,0.004806226843918349
0.8309941949353403,0.000921554745187666,-0.003123063388884982,0.004699574029543683
0.9221978823334341,0.0007404393355582208,-0.00336857108399231,0.0045568225711776714
1.0234114021054528,0.0005872543867828066,-0.0035943077218158997,0.004396482561191771
1.135733358343105,0.0004669166347404066,-0.003767900389624563,0.0042552839085283995
1.2603829296797273,0.000372269491323983,-0.00390992507560937,0.004184713167194115
1.3987131026472386,0.00029456796910458995,-0.004040866302674952,0.004203749732472093
1.552225357427048,0.00023187695497402347,-0.00415962694291052,0.00427504052011694
1.7225859653987874,0.00018509776959244092,-0.004242290535611972,0.004333805899395874
1.9116440753857036,0.0001511281549768493,-0.00427573547585775,0.00434873723549076
2.121451784910632,0.00012562281560406908,-0.004253784283930585,0.004310776288034971
2.35428641432242,0.00010899747226576511,-0.0041973851609442125,0.004237158192343751
2.612675225563332,0.00010692972142593598,-0.004141414577529537,0.004162422794741985
2.8994228538828812,0.00012397173682301136,-0.004081549479318223,0.004110238010986714
3.2176417502507353,0.00016085831491316257,-0.003973071167564709,0.004095338542941691
3.5707859649004625,0.00021442115267356418,-0.0037865465367864794,0.004119067638506778
3.9626886387014784,0.00027538769916218104,-0.0035647350731850074,0.004179616499369631
4.397603609302721,0.00033328198685314455,-0.0033732530602129966,0.004261456837228437
4.880251583654434,0.00038119954203687565,-0.0032799187622616337,0.0043444700464539444
5.415871378079476,0.00041518142039136525,-0.0033147064843826192,0.004406097903573059
6.010276782070388,0.00043901693344917535,-0.0034118251542784865,0.00445733695823177
6.669919663030129,0.00045858609140809114,-0.0034517900032115497,0.004520481669691312
7.401959996915652,0.0004732605603076842,-0.003399667445007106,0.004596515544466378
8.214343584919439,0.0004759751701828899,-0.003312037476481239,0.004666083442629604
9.115888299750837,0.00046422774770657005,-0.003238458794931461,0.004728127099109483
10.11637979766207,0.0004449211973472973,-0.003194476100713827,0.004810256924135212
11.226677735108158,0.0004225745244690357,-0.0031682690850330093,0.004880152069283578
12.458833642950081,0.0003942176852457165,-0.0031294735221160455,0.004798999608965311
13.826221737646593,0.0003514466574726107,-0.0029972542014784806,0.00439533927706127
15.343684089300131,0.00028694837003278185,-0.0026318293226366913,0.0036105903194431346
17.02769172225898,0.00019982859210909015,-0.0019340671120198773,0.002508591293738569
18.896523396912116,0.00010816352667087244,-0.0010789260576135478,0.0013539067105105944
20.970464013232306,4.2165166532341553e-05,-0.00042662247024552723,0.0005268955396426135
23.27202478960412,1.1326097613887566e-05,-0.00011530366548576215,0.000141418654252533
25.826187606826746,2.0526331978800377e-06,-2.0950115181797464e-05,2.562064921435062e-05
28.66067616948256,2.4870020948919383e-07,-2.5410109277251676e-06,3.103800353418543e-06
31.80625692794119,2.0068752573871237e-08,-2.0513317247877423e-07,2.504453772933591e-07
35.297073027306574,1.0768779816441977e-09,-1.100923360618566e-08,1.3438444042868506e-08
39.17101490809261,3.840068431587352e-11,-3.926087378371418e-10,4.792005841694771e-10
43.47013158125035,9.09758325052177e-13,-9.301636129406901e-12,1.1352793725143137e-11
48.241087041653735,1.4318003382891654e-14,-1.463931486580462e-13,1.786728210899996e-13
53.535666774107185,1.4968900654832987e-16,-1.5304890056175743e-15,1.8679518053793e-15
59.411339849650396,1.0395394066123202e-18,-1.062874729463126e-17,1.2972288759939313e-17
65.93188271333541,4.79548582392004e-21,-4.9031374309779776e-20,5.984229173827616e-20
73.16807143427206,1.4694799137219027e-23,-1.502468040194368e-22,1.833746261860199e-22
81.19844993184009,2.991118321811313e-26,-3.058265853843359e-25,3.7325804168055428e-25
90.11018251665037,4.044289439453478e-29,-4.135079789197861e-28,5.046819896231193e-28
100.0,3.632365000915879e-32,-3.7139081249700923e-31,4.532784356996971e-31
