tau,gamma,gamma_lo,gamma_hi
1e-07,1.0601344485305149e-05,-3.7085444904101456e-05,8.606869513378333e-05
1.1097524964120721e-07,5.437121930672554e-05,-0.00018905895240987715,0.00043969978976151345
1.2315506032928263e-07,0.00018893402168368274,-0.0006475677023724393,0.0015137071400281937
1.3667163564620074e-07,0.0004566043081478422,-0.0015143260171551973,0.0035810890655314427
1.5167168884709241e-07,0.0008089249967632329,-0.002506316436851994,0.006071011785222583
1.6831803533309585e-07,0.0011422603866846205,-0.003154204035906842,0.0079495393939166
1.867913599020781e-07,0.001406277617990164,-0.003376988002546095,0.008864801944077001
2.0729217795953698e-07,0.0016030467917543026,-0.003449654177580491,0.009139674809901174
2.300430119772917e-07,0.0017515875245927295,-0.0035441147860732127,0.009161294176531292
2.5529080682395163e-07,0.0018719390125889377,-0.0036027900145616768,0.00919074838820386
2.833096101839324e-07,0.001973308607311633,-0.003556754934974337,0.009330654879447849
3.1440354715915e-07,0.0020569908566237458,-0.0034740579446505323,0.009564015679226887
3.489101213406774e-07,0.002119044914131596,-0.0034348797368690485,0.009818359344170802
3.872038781812557e-07,0.0021659910423321277,-0.0034282279073793724,0.010047560401566602
4.2970047043208437e-07,0.002202645710921276,-0.0033988848817273942,0.010193894327376283
4.768611697714474e-07,0.0022298695596930673,-0.003351068455541971,0.010205943253267213
5.291978735958437e-07,0.0022432458412723357,-0.003327066566987594,0.010043782649053229
5.872786613189477e-07,0.0022460696438083745,-0.0033316837411416704,0.009779266844214663
6.517339604882421e-07,0.0022506201613880393,-0.003329984367383904,0.009585172090898743
7.232633896483533e-07,0.0022651512970265314,-0.0033145939717327006,0.009525998180970394
8.026433522257174e-07,0.0022942280346031287,-0.0033323179715735573,0.009510778902913882
8.907354638610439e-07,0.002335824068262403,-0.0033970978580025292,0.009416901441958878
9.884959046625586e-07,0.002388393712884842,-0.003444252182265956,0.00921832041462275
1.096985797892384e-06,0.0024474471824843555,-0.0033991940107127375,0.008951928857437588
1.217382727739662e-06,0.0025152103245341764,-0.00328141908441529,0.008754218844081375
1.3509935211980278e-06,0.0025917249347447856,-0.003153292156590398,0.00875859447746071
1.499268432786047e-06,0.0026764644605522725,-0.0030481877583076558,0.008952630329600687
1.6638168860761274e-06,0.0027657220958592597,-0.0029642495562547336,0.009214276395654256
1.8464249428955464e-06,0.0028617941959546175,-0.0028828499808229006,0.009492991690652788
2.049074689815846e-06,0.0029729979885399177,-0.00278379062465792,0.009826747712694534
2.2739657523579273e-06,0.003101262695327916,-0.002661974148674488,0.01019685353389348
2.523539170434766e-06,0.0032430142730197112,-0.002542915980946931,0.010487703823827575
2.800503894183631e-06,0.003394139402833598,-0.002439636934181839,0.010616601531007552
3.107866187782014e-06,0.0035674393835588474,-0.002333879438883016,0.01069514490819081
3.4489622604057595e-06,0.0037724594764591965,-0.002189897902589966,0.010855386578150997
3.827494478516315e-06,0.004010966364571856,-0.001988594133900481,0.011109278221170483
4.247571552536894e-06,0.0042705885365533665,-0.0017235637970609335,0.011383197497598445
4.713753134116729e-06,0.004543735761520329,-0.0014057418648168363,0.011678870063152394
5.2310993080562585e-06,0.004823117135408549,-0.00106658222266137,0.012056902653829641
5.805225516094895e-06,0.005113010358744247,-0.000743574850264285,0.012529876951046924
6.44236350872137e-06,0.005429823947314741,-0.0004803360085149067,0.013045950926346242
7.149428986597577e-06,0.005785670343665622,-0.00027484256348173276,0.013576957222768585
7.934096665797492e-06,0.006191156389093905,-5.7859162939289e-05,0.014195535488414724
8.804883581643465e-06,0.006645477548875515,0.00023734894409785715,0.01495811811439753
9.771241535346501e-06,0.007152463649846575,0.0006105112101522376,0.015865669240315884
1.0843659686896109e-05,0.007701291659557124,0.0010268626163920313,0.016859476772956853
1.2033778407775906e-05,0.00828573491337445,0.001457905693984403,0.017913370024450797
1.3354515629298974e-05,0.008887665141039202,0.0018662538866829313,0.018972624925388374
1.48202070579886e-05,0.009511014152996515,0.00219557848852548,0.019954751207188422
1.6446761779946626e-05,0.01016413343384723,0.0023849944609915376,0.020737707211507535
1.8251834943190462e-05,0.010844609103092767,0.002486996759638398,0.02129473747992627
2.0255019392306664e-05,0.011535196704541034,0.002688323390815797,0.021762189577927894
2.2478058335487252e-05,0.012209826532136864,0.0030839425917615617,0.022285194630827315
2.4945081352303165e-05,0.012870781123025395,0.0035513993258944757,0.02301841805892152
2.7682866303920665e-05,0.013509971738002247,0.003962452099561128,0.024018840884705937
3.072112998861759e-05,0.01414868008795018,0.004399168697245865,0.025239095557734806
3.409285069746814e-05,0.014786257168959269,0.00499396435198113,0.026510778286081144
3.783462617131933e-05,0.015428790380267605,0.00568542933810118,0.027678653236167958
4.1987070844439056e-05,0.01605876832462712,0.006271410622167106,0.028585136235316503
4.659525668664687e-05,0.01667177568245997,0.006710510699250267,0.029254171827363742
5.170920242896755e-05,0.017274633968342123,0.00713914696985202,0.029870782513508082
5.7384416483024044e-05,0.017885626337649438,0.007655417829470844,0.03055521757432965
6.368249944718586e-05,0.01855697103994046,0.008233849297955778,0.03135214333240574
7.067181273927492e-05,0.01928912267573534,0.00877640894751416,0.032272238661172445
7.842822061337681e-05,0.02004735973087673,0.009177318235784049,0.03345040525484095
8.703591361485166e-05,0.02077747407513044,0.009375289644125196,0.03497220650724672
9.658832241158708e-05,0.02155267733653559,0.0094956139913175,0.03684183561051461
0.00010718913192051276,0.022457963707589595,0.009728024089295668,0.03891635700498881
0.00011895340673703195,0.023524325640383526,0.010168967443430712,0.04105100224192727
0.0001320088400831418,0.024709260546600897,0.010816635449892208,0.04309521564452135
0.00014649713983072864,0.026022984399724634,0.011652618545221972,0.04515360017279949
0.0001625755666443795,0.027543427216475926,0.012659599306719588,0.04757245532729333
0.00018041864093920718,0.02933028509650273,0.013824359096674127,0.050528813874709685
0.00020022003718155845,0.03143301378720673,0.015124814669871669,0.05397472056781839
0.0002221946860939524,0.033890840589269125,0.01646006333480223,0.0579786694791001
0.0002465811075822604,0.03683901443570482,0.017669068899124438,0.06314051022919492
0.0002736439997074672,0.040349226846171544,0.018724749123625355,0.06975179764688866
0.00030367711180354605,0.04440953912293141,0.020129616822571503,0.07696963293998102
0.00033700643292719284,0.048871588926888136,0.02247226811162617,0.08336907181457699
0.0003739937302478798,0.05371232562791956,0.025546431413314964,0.08901028446522909
0.0004150404757850477,0.058940185361150886,0.028457545378299986,0.09512634491713536
0.00046059220411451084,0.06465424732430976,0.030867597886816263,0.10254481244429445
0.0005111433483440171,0.07099118485970646,0.03331337185966068,0.11119867311440201
0.0005672426068491978,0.07803557246918646,0.03654688154118037,0.12063979494897027
0.0006294988990221888,0.08583848044826942,0.041221402048656035,0.1304635387548006
0.0006985879746785249,0.09423996762394811,0.04751784556778537,0.14024712652712854
0.0007752597488629464,0.10303503973472085,0.05480235518529812,0.15009802452725657
0.000860346441668451,0.11185584201827142,0.062055653622560346,0.1600856474619628
0.0009547716114208065,0.1208036194298241,0.06884540935449598,0.1706273442649083
0.001059560179277617,0.13008158217966442,0.07518102775307628,0.18199906192033957
0.0011758495540521582,0.1401542690464191,0.08182461236954704,0.19456378011146527
0.0013049019780144017,0.15146587831925612,0.08993532714354614,0.2085812014627403
0.001448118227674533,0.164211461719125,0.10002761005239284,0.22442479314203997
0.0016070528182616384,0.1782525191993832,0.11154074295965637,0.2426354092695532
0.0017834308769319094,0.19326628299967125,0.12345881949101128,0.26330505239810653
0.0019791668678535573,0.20922855691393277,0.134905736915944,0.28611553632567066
0.002196385372416547,0.226024469437518,0.14570117759512968,0.30997169334383806
0.002437444150122222,0.24417774893117325,0.15782472592762983,0.3340669816819842
0.002704959730463137,0.2639393982942495,0.17349686543910153,0.35757142413810694
0.0030018358135755923,0.2856004867888972,0.19296644203983965,0.381995349779483
0.003331294787934677,0.30870994288651304,0.21436566863968956,0.409676468799166
0.0036969127071950323,0.33252036043414757,0.23583276730803387,0.4420772001242465
0.00410265810582719,0.35555430336737753,0.2555054356772611,0.47852575486740245
0.004552935074866948,0.3762584399762734,0.27215397834103666,0.5159883325607938
0.00505263106533568,0.39354478788294006,0.2854425202587407,0.5492832403266907
0.005607169938205458,0.4061999358628363,0.2945857836262801,0.5743205286635996
0.006222570836730231,0.41431341319298615,0.2988032406645164,0.5926739919922004
0.006905513520162331,0.41685286496537793,0.29615081148316297,0.6054377790737484
0.007663410868007463,0.4122495514927865,0.28477854610492354,0.6109133763823608
0.008504489341802686,0.3976182037301342,0.2617712770039902,0.6035115366642935
0.009437878277775391,0.3715469976669822,0.22454368307819078,0.57842075463926
0.010473708979594508,0.33415899944545097,0.17239866006381963,0.5324617940076203
0.011623224686798541,0.2873492511831904,0.11069159982124488,0.46809204322997955
0.01289890261253308,0.23616453068563323,0.052773329676120105,0.3957424246606208
0.014314589375234785,0.18471828513870125,0.00826438892930423,0.32414847812340625
0.015885651294280528,0.13692799917746182,-0.020719928430680885,0.2597358961814972
0.01762914118095948,0.09563091768503683,-0.03559427145639935,0.20528379179003847
0.01956398343517065,0.06281367694168648,-0.03995776519633289,0.16025002267252425
0.021711179456945052,0.03963741065468544,-0.03744913940111897,0.1230923948004244
0.02409403560239527,0.02483383783355577,-0.03141112456928653,0.09293749211140447
0.026738416158399492,0.016059607286747258,-0.024691880428960165,0.06978486058783717
0.029673024081888724,0.011084645418414297,-0.01890620437139728,0.052716419110815135
0.032929712550971546,0.008154335409879497,-0.014807433238106987,0.04026673094290108
0.036543830709572546,0.006237018286198928,-0.01233108402570141,0.031206735007261063
0.040554607358408275,0.004910918823895443,-0.010830326013354045,0.024890595608802395
0.04500557675700498,0.003993004335475324,-0.009752227176613957,0.02074346762149277
0.0499450511585514,0.0033410733873567673,-0.008955287287561788,0.01795323997422305
0.05542664520663107,0.002837334167396239,-0.008445979872317913,0.01580936825492582
0.06150985788580504,0.0024094390574105266,-0.0081702365849701,0.01403680344551338
0.06826071834272393,0.0020206979741715743,-0.008028550070519868,0.012600282687601192
0.0757525025877192,0.0016698006603131604,-0.007972185898978851,0.011481345979645978
0.08406652885618333,0.0013754859152533638,-0.007985524325102973,0.010627946664099755
0.09329304026284696,0.0011384450056639097,-0.008051434367385426,0.009939304096825547
0.10353218432956637,0.000944090367975577,-0.008130476397645636,0.009299653057994064
0.11489510001873086,0.0007777884001381356,-0.00815435650411156,0.00865597565620828
0.1275051240713013,0.0006346348789791653,-0.008044160002625332,0.008071259537301256
0.1414991297434576,0.0005093071288070222,-0.007762670933296958,0.007610903184071844
0.15702901247293774,0.0003925632261915449,-0.00740259685028638,0.007312932729643708
0.17426333860096507,0.0002751432504218852,-0.007084324510899652,0.007164213059107493
0.19338917504552322,0.0001551483279809114,-0.0069090645931316015,0.007101864433912119
0.21461411978584058,3.769262984559425e-05,-0.0069214983859144,0.007048761813037161
0.23816855519761607,-6.720149038236516e-05,-0.007060654912153911,0.007004985310332855
0.2643081486974108,-0.0001464685057534973,-0.007185907605146528,0.007010233534041749
0.29331662783900486,-0.00019903392640533536,-0.007196788428969911,0.0070486555316531165
0.32550885998350565,-0.00023503798424906016,-0.007065312209722968,0.007050895453941523
0.36123426997094304,-0.00026291195606961996,-0.006846319267232523,0.007009114811349288
0.40088063288984643,-0.00028469926148053196,-0.006697769691726613,0.007027693935570167
0.4448782831127585,-0.0002986386690576814,-0.006703395180891751,0.0071268717784110005
0.4937047852839004,-0.0003032740919583527,-0.006777264462454455,0.007135263078199019
0.5478901179593945,-0.0002994567008864186,-0.006787582411212416,0.006885358152888329
0.6080224261649427,-0.00029571353112996414,-0.006738612711664033,0.006515645312203434
0.67475440531107,-0.0003024715480609987,-0.006700077842092459,0.006289981645540953
0.748810385759003,-0.0003212558152498522,-0.006698429233347974,0.006252344726330508
0.8309941949353403,-0.0003448745435746554,-0.006711230246445562,0.006253004778450573
0.9221978823334341,-0.0003648638292834294,-0.006733784053526184,0.006210365058137255
1.0234114021054528,-0.0003737436568103825,-0.0067906184173993096,0.006176444362913536
1.135733358343105,-0.00036886419956442325,-0.006849249984528965,0.00619118223134657
1.2603829296797273,-0.0003558779921065422,-0.006805532685493801,0.006232522862818232
1.3987131026472386,-0.00034177394917754057,-0.006598345120479195,0.006273111131731958
1.552225357427048,-0.0003325053789009507,-0.006357277773464007,0.0063596369665645785
1.7225859653987874,-0.0003305713997856197,-0.0062401523206354285,0.006530207243640463
1.9116440753857036,-0.00033287796985717784,-0.006253455954307001,0.006732893554005171
2.121451784910632,-0.00033290494758900533,-0.00630093285032653,0.006857710268943625
2.35428641432242,-0.0003271818046586824,-0.006343161376076639,0.00688035931972624
2.612675225563332,-0.0003162529850101262,-0.006400617640043344,0.006861449485965894
2.8994228538828812,-0.00030426642606561847,-0.006463717588526033,0.006863538755695384
3.2176417502507353,-0.0002982243189585177,-0.006481352919742439,0.006931244252013458
3.5707859649004625,-0.00029819561645933406,-0.006443157725179856,0.007057341772153797
3.9626886387014784,-0.00029355703873389815,-0.006451197866652482,0.007188834166157939
4.397603609302721,-0.0002765786287814821,-0.0065767473091693845,0.007271436784632593
4.880251583654434,-0.00025774775073839616,-0.006754668684577689,0.00732848176890142
5.415871378079476,-0.0002526921996302861,-0.006854230607667155,0.0073834166805199
6.010276782070388,-0.0002625004336480691,-0.0068392714575134855,0.007396071431240316
6.669919663030129,-0.0002770352539695131,-0.006737375024102378,0.007283095050012454
7.401959996915652,-0.0002890833442889168,-0.006577491078013302,0.007048140424766512
8.214343584919439,-0.00029712216384557185,-0.006382472981130648,0.0067898990609593715
9.115888299750837,-0.0003037117801896726,-0.006182714227322623,0.00657309966051651
10.11637979766207,-0.0003131903885097701,-0.006036113757044538,0.006402781203525288
11.226677735108158,-0.0003210092676091021,-0.005941436749477214,0.0062370738615758385
12.458833642950081,-0.00030837169956862915,-0.0057930436095910524,0.006009409916860556
13.826221737646593,-0.0002594272062143287,-0.0054052494706806715,0.005583344396818454
15.343684089300131,-0.00018567696224628806,-0.0045958787611882585,0.004761285414287161
17.02769172225898,-0.000112282073319838,-0.003293467118082711,0.0034273480235286844
18.896523396912116,-5.50704867103468e-05,-0.0018112267919243438,0.0018905514187478104
20.970464013232306,-2.0372015626792758e-05,-0.000711368572590137,0.0007436498333804698
23.27202478960412,-5.34245776202135e-06,-0.00019170198321170144,0.00020053578527889416
25.826187606826746,-9.58357644317797e-07,-3.478905060815935e-05,3.6402420717762706e-05
28.66067616948256,-1.156256070067845e-07,-4.217419916449368e-06,4.413517245545026e-06
31.80625692794119,-9.314242852894466e-09,-3.403991327341918e-07,3.5624346753865826e-07
35.297073027306574,-4.99446236530704e-10,-1.826728684273914e-08,1.9117928051369752e-08
39.17101490809261,-1.780482111174752e-11,-6.51422129547223e-10,6.81761777527909e-10
43.47013158125035,-4.2176898032156135e-13,-1.5433202606811e-11,1.6152046716316686e-11
48.241087041653735,-6.63759568330598e-15,-2.428930570131091e-13,2.542067961388194e-13
53.535666774107185,-6.939210116791562e-17,-2.539356098950274e-15,2.657638378373992e-15
59.411339849650396,-4.819009353002318e-19,-1.7634984712710268e-17,1.8456419700169824e-17
65.93188271333541,-2.2230441090172694e-21,-8.135175299489914e-20,8.514111282640755e-20
73.16807143427206,-6.812061790694978e-24,-2.492860801232439e-22,2.6089781985268217e-22
81.19844993184009,-1.3865907464592292e-26,-5.0742048499140965e-25,5.31056126537282e-25
90.11018251665037,-1.874808201853824e-29,-6.86082977157068e-28,7.180407199633445e-28
100.0,-1.6838525611031544e-32,-6.162031323469809e-31,6.449058736711665e-31
