tau,gamma,gamma_lo,gamma_hi
1e-07,-0.0003901543913185841,-0.0017616177862137602,0.0003691369375454265
1.1097524964120721e-07,-0.001998932844141877,-0.00901432047733291,0.001897503032883004
1.2315506032928263e-07,-0.006928623985016993,-0.031154814272730997,0.0066308965834161624
1.3667163564620074e-07,-0.016643118576898784,-0.07437784322394873,0.016251901681278585
1.5167168884709241e-07,-0.02906177567333913,-0.1285495506592061,0.029821664764701487
1.6831803533309585e-07,-0.03965652550081634,-0.17430958666551524,0.045923615741162674
1.867913599020781e-07,-0.04480256637615937,-0.2043456518802565,0.0690288964228433
2.0729217795953698e-07,-0.039665071766724895,-0.2227369397366455,0.11599219774297322
2.300430119772917e-07,-0.013250597961271838,-0.2334169449605021,0.22442761711543258
2.5529080682395163e-07,0.05094925385673885,-0.23482056074674898,0.44169659655630106
2.833096101839324e-07,0.15820596430575587,-0.2180005638006566,0.7540537290810453
3.1440354715915e-07,0.28798290058826126,-0.17088379407514448,1.0378405811060154
3.489101213406774e-07,0.41350056542281205,-0.1014064444125872,1.190883925028392
3.872038781812557e-07,0.5122906946377134,-0.07104522568137898,1.2638104052612205
4.2970047043208437e-07,0.5366007998320725,-0.17715925985319053,1.3331538811213506
4.768611697714474e-07,0.3781085774717098,-0.514508846158476,1.3161517412329262
5.291978735958437e-07,-0.10871802603518946,-1.1781133857943231,1.0054317259541512
5.872786613189477e-07,-0.9833562453010928,-2.2366541839150034,0.2730434060426826
6.517339604882421e-07,-2.194963504999493,-3.705920483857504,-0.8718774441570833
7.232633896483533e-07,-3.6619356356215826,-5.528719778593691,-2.299285908165549
8.026433522257174e-07,-5.2474721020519635,-7.504108160056181,-3.7186583195268907
8.907354638610439e-07,-6.78045245867569,-9.373349731621094,-4.861507946542294
9.884959046625586e-07,-8.01691456830447,-10.820858658926916,-5.568837135314209
1.096985797892384e-06,-8.60500600687085,-11.434165976402902,-5.680978886498685
1.217382727739662e-06,-8.16062180037642,-10.815990682633327,-5.032185787006833
1.3509935211980278e-06,-6.409591444802952,-8.724262704261298,-3.5003411042172865
1.499268432786047e-06,-3.7198013934008185,-5.64994766444126,-1.2983416080294214
1.6638168860761274e-06,-0.9910141348177541,-2.6553700228908097,1.017529040664656
1.8464249428955464e-06,1.0447268494256574,-0.47715828665466753,2.817394342563656
2.049074689815846e-06,1.9332645171509557,0.5839463238366752,3.4720839664807372
2.2739657523579273e-06,1.7030155856560139,0.6365884509358155,2.896937408487815
2.523539170434766e-06,0.9722039759712072,0.20014222889495648,1.8167726779675293
2.800503894183631e-06,0.3285945175601363,-0.24307460493262892,0.9402801183359359
3.107866187782014e-06,-0.04500447602196768,-0.49950798045021494,0.4342667239673091
3.4489622604057595e-06,-0.1891562793951618,-0.5523467783114864,0.18783818486811707
3.827494478516315e-06,-0.2021349736931797,-0.4791690174919022,0.07824614117525572
4.247571552536894e-06,-0.1720912891649067,-0.3789446141163468,0.03101485307118317
4.713753134116729e-06,-0.1389611742988852,-0.29997837718051595,0.01470822049309877
5.2310993080562585e-06,-0.10709931861686102,-0.24632082000350075,0.021342822001653865
5.805225516094895e-06,-0.07396894562662816,-0.20837155952277467,0.04441710412672691
6.44236350872137e-06,-0.04152538102645114,-0.17623442569161563,0.07147842398009888
7.149428986597577e-06,-0.01160418030168993,-0.1424829164254598,0.09552023898239599
7.934096665797492e-06,0.016168557701145968,-0.10362596207975783,0.11965706452762583
8.804883581643465e-06,0.04146956681389844,-0.0611498565269303,0.14583194827023663
9.771241535346501e-06,0.06054905050497503,-0.024800164062666066,0.16556048126213313
1.0843659686896109e-05,0.06899197868029436,-0.00516272101630495,0.16819290434046333
1.2033778407775906e-05,0.06785579740312993,-0.0015282432147071783,0.156435838224302
1.3354515629298974e-05,0.06159818603089628,-0.005847112119243878,0.14100379046173736
1.48202070579886e-05,0.05374695761271545,-0.011501111264940762,0.12711965103777603
1.6446761779946626e-05,0.04637512903967147,-0.01482457593967022,0.11376386535249247
1.8251834943190462e-05,0.04022538480107805,-0.015143986491063716,0.0998063856400151
2.0255019392306664e-05,0.035349285058568394,-0.014160400513249405,0.08693707106618438
2.2478058335487252e-05,0.03166464739646554,-0.013385560505078133,0.07694110353799612
2.4945081352303165e-05,0.02939655516392879,-0.012978574263721624,0.07055992518772636
2.7682866303920665e-05,0.02892973634142961,-0.012527786136653148,0.0681654837460351
3.072112998861759e-05,0.030623990145310153,-0.01181815786204504,0.07038389730438713
3.409285069746814e-05,0.03459242341039314,-0.0105775131293993,0.07723899756664081
3.783462617131933e-05,0.04022127948107908,-0.008037700061365272,0.0863263312994501
4.1987070844439056e-05,0.046337980504019646,-0.0032026392128061865,0.09374418048060901
4.659525668664687e-05,0.052219862731873845,0.003983260605983405,0.09825694271754003
5.170920242896755e-05,0.057525076339765134,0.012408011927672758,0.10125100677689397
5.7384416483024044e-05,0.062013652549517406,0.0209780427937641,0.1033617148884339
6.368249944718586e-05,0.06546631708982022,0.02874802653275393,0.10355973191875806
7.067181273927492e-05,0.06782403685745786,0.034874937053123264,0.10128291480671804
7.842822061337681e-05,0.06967240334865775,0.038702637020581535,0.09866314428758
8.703591361485166e-05,0.07155347334988864,0.04011178956127567,0.09804327694996565
9.658832241158708e-05,0.07371541993133152,0.04062001165933179,0.09974057289999555
0.00010718913192051276,0.0760763107139257,0.04217489105619274,0.102706410298493
0.00011895340673703195,0.07868419483246937,0.0451959625268351,0.10633435190372056
0.0001320088400831418,0.08167130785110156,0.04875823048686035,0.11070759556496751
0.00014649713983072864,0.0852679619682273,0.05209623328490042,0.11679181514370653
0.0001625755666443795,0.08962340913664292,0.054669801604403045,0.12604581823772404
0.00018041864093920718,0.09417491635886471,0.05518000423132288,0.1384648442485258
0.00020022003718155845,0.09760767683049405,0.05133973973431995,0.151849176464314
0.0002221946860939524,0.09920034996854724,0.041830471741370646,0.16442135340783864
0.0002465811075822604,0.10043805482076473,0.028944836199534904,0.17710641750827255
0.0002736439997074672,0.10276253147766476,0.01685065662667312,0.18991982270356378
0.00030367711180354605,0.1053928841062332,0.009851196634024527,0.19861387462213492
0.00033700643292719284,0.10625721026675118,0.010931368492122333,0.19719974371436405
0.0003739937302478798,0.10522683942758058,0.017662307999966854,0.18689244288529747
0.0004150404757850477,0.1043733769611791,0.024241468263868866,0.1759162710281565
0.00046059220411451084,0.10653917095218451,0.03035315655281308,0.17234123285701322
0.0005111433483440171,0.11446485456744371,0.04211540274645137,0.18152946742476217
0.0005672426068491978,0.1274555802844043,0.061388077812379156,0.20122341744434402
0.0006294988990221888,0.13955655613093362,0.07937859425045657,0.21899471212529714
0.0006985879746785249,0.14511207129491785,0.08562187926478793,0.2245494916175955
0.0007752597488629464,0.14456174548522654,0.07691985545041355,0.22221068226008656
0.000860346441668451,0.1409655402306389,0.05620329652085795,0.22252879531145126
0.0009547716114208065,0.13678093356753554,0.03325835855925381,0.23216142025087272
0.001059560179277617,0.1327964361686109,0.01853326493960579,0.25133956235213695
0.0011758495540521582,0.1275798373164,0.008275670143545319,0.27151985531222406
0.0013049019780144017,0.11899834645755612,-0.011637364762605398,0.2788741549786336
0.001448118227674533,0.10909673511620974,-0.04119212722387219,0.2721515173252021
0.0016070528182616384,0.10538990377817845,-0.05918271597657294,0.2669552608513119
0.0017834308769319094,0.1112018026190066,-0.051398842122168505,0.2713653015702858
0.0019791668678535573,0.11992795020917006,-0.02864973615056939,0.2728743804006944
0.002196385372416547,0.1240311311308194,-0.00696531318702563,0.25792550411492166
0.002437444150122222,0.12446718138954063,0.010205816789812368,0.23424146624666145
0.002704959730463137,0.12542965425261413,0.025839082678676833,0.21745060954377324
0.0030018358135755923,0.12638286765986892,0.03865142694901332,0.2089416199696998
0.003331294787934677,0.12305963625529082,0.043701239687817035,0.1989111222547903
0.0036969127071950323,0.11463360830552728,0.04154998792570187,0.18274442941587524
0.00410265810582719,0.1048884442003737,0.039069749025775376,0.16433273000043155
0.004552935074866948,0.09695549604848852,0.040680630351993166,0.14793727031740891
0.00505263106533568,0.09175056765900556,0.045120734831201874,0.13562556532153813
0.005607169938205458,0.08885544650494034,0.04965461402125035,0.12764639772672948
0.006222570836730231,0.08745207691621885,0.05287649339772533,0.12336271355663173
0.006905513520162331,0.08667944272355046,0.054169811969082916,0.12185415646310115
0.007663410868007463,0.08623020884510375,0.053455750648398026,0.12264003324466376
0.008504489341802686,0.08599707766172468,0.0509847873765718,0.12557141223129548
0.009437878277775391,0.08598599878030865,0.04794186432140131,0.1310534708482585
0.010473708979594508,0.08610462699699202,0.04593166716108556,0.1393689314551575
0.011623224686798541,0.0860246775836467,0.04490000147775686,0.14929379408276508
0.01289890261253308,0.08518371264910671,0.04269989077403011,0.15748938120924497
0.014314589375234785,0.0828878508256133,0.03659628124469205,0.16012944929762155
0.015885651294280528,0.07884232485867955,0.02486781353062771,0.1543984397771124
0.01762914118095948,0.07356535121015449,0.00974097051478935,0.14045495249271858
0.01956398343517065,0.06940680411342141,0.0006300411532189923,0.12500956743643793
0.021711179456945052,0.06838074632493056,0.0059883465648063955,0.11499533507580002
0.02409403560239527,0.06948093702314383,0.021123105836075757,0.11006362763699278
0.026738416158399492,0.07005807704712692,0.034201338129160735,0.10565838272051914
0.029673024081888724,0.0693798848370154,0.04053153349124868,0.10032092546756571
0.032929712550971546,0.06862751532782355,0.04269935100386521,0.09623790673291405
0.036543830709572546,0.06867498613435843,0.043394950953677756,0.09532374304961619
0.040554607358408275,0.06953132259107433,0.04314126691453232,0.0980729279829457
0.04500557675700498,0.07095068527856464,0.04190095129970978,0.10392317358920006
0.0499450511585514,0.07300658724014758,0.040486148246198825,0.11147603252448299
0.05542664520663107,0.07577994503865665,0.040001806395023196,0.11890058824566048
0.06150985788580504,0.07937470489919281,0.041488738229181754,0.12464528212379537
0.06826071834272393,0.0837592006423814,0.0456556286839943,0.1277448090970173
0.0757525025877192,0.0890195733467013,0.05238144102964156,0.12967183230208007
0.08406652885618333,0.09510214759168,0.060763718829913965,0.13290621799091465
0.09329304026284696,0.10180079854529975,0.06955931198287385,0.1381092099353144
0.10353218432956637,0.10869029766737998,0.07710566503320217,0.14416569218719086
0.11489510001873086,0.11568139475559462,0.08227194692673469,0.15095649099458647
0.1275051240713013,0.12324681661754411,0.08490125970047274,0.16023153401807186
0.1414991297434576,0.13182792650863487,0.08595077603813563,0.17265849761274396
0.15702901247293774,0.14190123063183344,0.08824288409699686,0.18650742598624934
0.17426333860096507,0.1539543214778362,0.09446868244058595,0.2007597850324704
0.19338917504552322,0.16912910741486056,0.10546576133577625,0.2193068250404118
0.21461411978584058,0.18829702810383747,0.12074179460654948,0.24657015289061435
0.23816855519761607,0.21133937918925857,0.13934149033821613,0.2807802423450388
0.2643081486974108,0.23704466998087587,0.1591080031881865,0.315611094392643
0.29331662783900486,0.2653155597243853,0.1765027592289461,0.3504254160785922
0.32550885998350565,0.29840816793316705,0.18874108851625632,0.3927114763937464
0.36123426997094304,0.34386548091169905,0.20394779971748728,0.45556153987520276
0.40088063288984643,0.41392053128272543,0.244306083490909,0.5535153658937776
0.4448782831127585,0.5108711626869655,0.32258465762544763,0.6838504388806829
0.4937047852839004,0.6143766736655988,0.42262811665868183,0.810081512449644
0.5478901179593945,0.699211198822209,0.5190125176761902,0.8922382151770507
0.6080224261649427,0.7602658417854509,0.6001689568585611,0.9307977622413823
0.67475440531107,0.8032423958926612,0.6624851365119315,0.9501575225539352
0.748810385759003,0.8357474106651064,0.7063178360915199,0.9763214253918184
0.8309941949353403,0.8617794653223303,0.731169728121283,1.0248181110151964
0.9221978823334341,0.8789308181756605,0.7362349801443251,1.0813096985518893
1.0234114021054528,0.879911771127924,0.7217730629473266,1.1039677660805065
1.135733358343105,0.8613167942219015,0.6901237191658239,1.0731711837743059
1.2603829296797273,0.8317537068517469,0.6505829051153492,1.0199504400574146
1.3987131026472386,0.7998346431283201,0.6114261774602119,0.980706405487869
1.552225357427048,0.7702527670310079,0.5779907670038249,0.9683224089778784
1.7225859653987874,0.7409011004603089,0.5494144190319488,0.9740539592868841
1.9116440753857036,0.7034021035417475,0.516067141356265,0.9728876740209862
2.121451784910632,0.645768365695946,0.4626574086929801,0.9330707947050985
2.35428641432242,0.5631558021069076,0.3798328598730798,0.8435498820971192
2.612675225563332,0.4609613249208809,0.27004449925795626,0.7156320513756039
2.8994228538828812,0.35323517536602406,0.15456290819819,0.570771695903797
3.2176417502507353,0.2640752016318202,0.07514135837595283,0.4403727455715751
3.5707859649004625,0.20474352981771052,0.05034113460715606,0.34138587462086967
3.9626886387014784,0.1633241997769858,0.05142420369161471,0.26749724876171566
4.397603609302721,0.12531175548346957,0.044663764721093374,0.20735414189421814
4.880251583654434,0.09147595268082752,0.027562324509308348,0.15960792124058845
5.415871378079476,0.06973006830110891,0.013672567614461976,0.128165799664164
6.010276782070388,0.06050446193849054,0.008509496745619847,0.11145864982563454
6.669919663030129,0.05822707283478363,0.009146122158336309,0.10392341468004186
7.401959996915652,0.0587562910042641,0.01173684091151659,0.10191763309997376
8.214343584919439,0.06101669429398943,0.014124793630670056,0.10477789920584422
9.115888299750837,0.06602085889644242,0.017242208617399776,0.11306362046047565
10.11637979766207,0.07676866027909302,0.02557130835283698,0.12829413065898937
11.226677735108158,0.09811418800216135,0.04461958611949834,0.1543950779702971
12.458833642950081,0.134625925072516,0.07748850021852002,0.19620445659615443
13.826221737646593,0.17982170560580915,0.11804285534668456,0.24587083578653235
15.343684089300131,0.20333520543812142,0.14206250730528458,0.2674410754290593
17.02769172225898,0.17325121776966937,0.12437464447507346,0.22353707384517374
18.896523396912116,0.10386811821661443,0.07541603045495254,0.13288008236086257
20.970464013232306,0.04239342446553499,0.03092433402679162,0.054040827901059206
23.27202478960412,0.011611006449165948,0.008485822894820944,0.01477931588529646
25.826187606826746,0.002121210585233825,0.0015514629762972806,0.002698410019939706
28.66067616948256,0.0002578511867448503,0.00018865220251282927,0.00032793491407085963
31.80625692794119,2.0834837235412916e-05,1.5245355755471323e-05,2.649511663779196e-05
35.297073027306574,1.1185874914351981e-06,8.185393350905078e-07,1.4224216460152092e-06
39.17101490809261,3.989670886326452e-08,2.919548072833153e-08,5.073275542503655e-08
43.47013158125035,9.452843352506916e-10,6.917428007717563e-10,1.20201808139417e-09
48.241087041653735,1.4877651861312843e-11,1.088724628001047e-11,1.8918285806016153e-11
53.535666774107185,1.555421559812817e-13,1.138236122305317e-13,1.977857687156494e-13
59.411339849650396,1.0801938642918855e-15,7.904714632661172e-16,1.3735625551052511e-15
65.93188271333541,4.9830401763834005e-18,3.646523159309653e-18,6.3363775913297256e-18
73.16807143427206,1.5269536256368187e-20,1.1174046500017332e-20,1.9416568413963613e-20
81.19844993184009,3.10810695334751e-23,2.2744720151219577e-23,3.952233293133268e-23
90.11018251665037,4.202470363570129e-26,3.0753128904004315e-26,5.343813240794615e-26
100.0,3.7744349073913735e-29,2.7620821541348634e-29,4.799528228567981e-29
