tau,gamma,gamma_lo,gamma_hi
1e-07,4.991273562370747e-06,-2.835094572128767e-05,4.810429865091169e-05
1.1097524964120721e-07,2.562259261027023e-05,-0.00014482769939238072,0.0002454685554009106
1.2315506032928263e-07,8.923183717303046e-05,-0.000498503035872772,0.0008427241371208796
1.3667163564620074e-07,0.00021671315872072932,-0.0011788372915693195,0.0019811314370842205
1.5167168884709241e-07,0.0003876756224429448,-0.00199600088714386,0.0033147528836558696
1.6831803533309585e-07,0.0005558442348593144,-0.002603930459205263,0.0042453046325753255
1.867913599020781e-07,0.0006963828843473779,-0.0028738364602693533,0.004617108446771843
2.0729217795953698e-07,0.0008058786748170434,-0.0028934436710391907,0.004702628606319467
2.300430119772917e-07,0.0008912358712979538,-0.002780353024281139,0.004753764178278667
2.5529080682395163e-07,0.00096205521904828,-0.0026286214000782538,0.0048585038523871514
2.833096101839324e-07,0.0010179232453245497,-0.002494554303116598,0.004981505866861068
3.1440354715915e-07,0.0010460366370545855,-0.0024136120679045295,0.005017524427403415
3.489101213406774e-07,0.0010344423803392763,-0.002398099592726737,0.004893734018462173
3.872038781812557e-07,0.0009951834459850822,-0.002435276702247069,0.0047020987605484715
4.2970047043208437e-07,0.0009491261140763554,-0.0024980605600580194,0.004583918078817161
4.768611697714474e-07,0.0009107532597445153,-0.0025678566403901366,0.0045796589968728416
5.291978735958437e-07,0.0008859419583827444,-0.002631037704798208,0.004640218376470386
5.872786613189477e-07,0.0008709822474782102,-0.0026838538992309873,0.004708041438775528
6.517339604882421e-07,0.0008560101117046696,-0.0027264530540285635,0.004737952485634574
7.232633896483533e-07,0.0008350061577744738,-0.0027485065187021545,0.004707231531873813
8.026433522257174e-07,0.0008120680908842132,-0.0027343803296418986,0.004628747868073554
8.907354638610439e-07,0.0007947477916816405,-0.002688443965555307,0.004524976058680615
9.884959046625586e-07,0.0007940308723959293,-0.0026664476578421004,0.004439909159792731
1.096985797892384e-06,0.0008160777577237643,-0.0027065565976685866,0.004399157772153906
1.217382727739662e-06,0.0008560501782486049,-0.002765136954337667,0.0043922641551967295
1.3509935211980278e-06,0.0009046658220917575,-0.0027594480884259214,0.004389467658699917
1.499268432786047e-06,0.0009638098749202047,-0.0026713240091338275,0.004395504712754661
1.6638168860761274e-06,0.0010416187708971087,-0.002538675807490862,0.004438137664095581
1.8464249428955464e-06,0.0011384783605851657,-0.0024022817235413436,0.004527933427622944
2.049074689815846e-06,0.0012443738081214743,-0.002294129620742119,0.004655695595575976
2.2739657523579273e-06,0.0013551535947151246,-0.0022185024902756953,0.004822118084542433
2.523539170434766e-06,0.0014796652977354773,-0.0021530733744956217,0.005055440257766788
2.800503894183631e-06,0.0016239822263803057,-0.0020654404093503774,0.005356544849031261
3.107866187782014e-06,0.001783782101534386,-0.001935087443401594,0.005671576638402662
3.4489622604057595e-06,0.0019491311233592028,-0.0017489299285584014,0.0059305356491595705
3.827494478516315e-06,0.002121754195046867,-0.0015187897100782794,0.006137005882697596
4.247571552536894e-06,0.0023059618469272293,-0.0012830740145864726,0.006326216269866943
4.713753134116729e-06,0.002506980920619421,-0.0011119300512808686,0.006526312772502005
5.2310993080562585e-06,0.0027266290273608835,-0.001077619500581753,0.0067472431699923405
5.805225516094895e-06,0.0029724254309318027,-0.0011279966989047316,0.007002773418780266
6.44236350872137e-06,0.0032569414229281883,-0.0010753448094544076,0.007321170941215942
7.149428986597577e-06,0.0035866478692619394,-0.0008105916787248049,0.007721664128277913
7.934096665797492e-06,0.003958325514091502,-0.00042258786561371334,0.008214860459198493
8.804883581643465e-06,0.0043592312335525955,-3.9534453184939456e-05,0.008782640143237022
9.771241535346501e-06,0.004780879458014908,0.00028424161235380836,0.009392184665534997
1.0843659686896109e-05,0.005211536096905362,0.000539926589326915,0.010005961828664056
1.2033778407775906e-05,0.005661093090744441,0.0007361989019536978,0.010661023558665403
1.3354515629298974e-05,0.006139742950592576,0.0008974827407176492,0.011401701192815486
1.48202070579886e-05,0.006658763036827565,0.001099175058898364,0.012202906319531597
1.6446761779946626e-05,0.007220844396726202,0.0014434831910003956,0.012967003445883519
1.8251834943190462e-05,0.00783722001206793,0.0019369425651107651,0.0136774171084863
2.0255019392306664e-05,0.008532791301593944,0.002456076249842659,0.014452104906135792
2.2478058335487252e-05,0.009330614793206725,0.0029216404069846037,0.01540584265202393
2.4945081352303165e-05,0.01025909170433722,0.0034040551583909098,0.01660601080162158
2.7682866303920665e-05,0.011329186952566968,0.004029097557812539,0.018036886490248528
3.072112998861759e-05,0.012552017364290234,0.004891656138939791,0.0196294942673248
3.409285069746814e-05,0.013912586678095461,0.005985882259727109,0.02129388692584574
3.783462617131933e-05,0.015413909028267034,0.00711967556014238,0.023109185251304416
4.1987070844439056e-05,0.01704685003301503,0.008033356855495445,0.02521641329636179
4.659525668664687e-05,0.018848941268116908,0.008838514403624109,0.027683730027250036
5.170920242896755e-05,0.020871299773975734,0.009989902347365602,0.030450747805538136
5.7384416483024044e-05,0.023144137345124428,0.011723419185919038,0.03346760531285216
6.368249944718586e-05,0.025655719944927668,0.013829844462199056,0.03673097984927169
7.067181273927492e-05,0.028367554670384397,0.0160242386157644,0.040178340176874376
7.842822061337681e-05,0.03128583440749107,0.018207735464917177,0.0437223502848575
8.703591361485166e-05,0.03441362766796242,0.02045565147083346,0.047303454989718545
9.658832241158708e-05,0.03787632434340543,0.023113025279910958,0.05124104732919433
0.00010718913192051276,0.04177212175242142,0.02648446098980647,0.055914469087867666
0.00011895340673703195,0.046188664213374656,0.03042814086264873,0.06153210912042431
0.0001320088400831418,0.05110848587639805,0.034392927053311644,0.06803771724300027
0.00014649713983072864,0.05656416759667959,0.03810348206445725,0.07544871176761613
0.0001625755666443795,0.0626234219028563,0.041650242136507594,0.08388239148517324
0.00018041864093920718,0.06950065047699462,0.04531984642128888,0.09369246499137454
0.00020022003718155845,0.07767814449793772,0.04954843643610021,0.10557011694858644
0.0002221946860939524,0.08775162474259433,0.054563752477500095,0.12019345531112097
0.0002465811075822604,0.10049715308963653,0.060368452197616544,0.1381491581099219
0.0002736439997074672,0.11647228884764334,0.06734220497550214,0.15968513522912328
0.00030367711180354605,0.13584455862472242,0.07731920386081899,0.18495814875648603
0.00033700643292719284,0.1584264429137614,0.09241022107945693,0.21400570260368582
0.0003739937302478798,0.1847585243853899,0.112590899162598,0.24806227710781548
0.0004150404757850477,0.21549215019995036,0.1359540753827144,0.2883674208870084
0.00046059220411451084,0.25086792844708494,0.1623490078125218,0.3343868789661114
0.0005111433483440171,0.2898624972925451,0.19352446657503322,0.3828481950929954
0.0005672426068491978,0.3308309697111964,0.22996168698501268,0.43153225241042803
0.0006294988990221888,0.37149691428981924,0.26862562162264536,0.4809423451613583
0.0006985879746785249,0.40851169205115323,0.30500721007730497,0.5297319696891332
0.0007752597488629464,0.43873666546219003,0.3357096509289058,0.5726296144801338
0.000860346441668451,0.4584314662649793,0.35727629149900103,0.6018864249032566
0.0009547716114208065,0.46699028194572334,0.3683466245466309,0.6155212712082014
0.001059560179277617,0.46460276604195533,0.36796425754388473,0.613869549451954
0.0011758495540521582,0.451696987684564,0.3565928387713978,0.597421604330571
0.0013049019780144017,0.4289024116748297,0.33592982069999405,0.5666216725069191
0.001448118227674533,0.3973975305950749,0.30748470761814733,0.5235053502312248
0.0016070528182616384,0.3609340359286561,0.27383999734995756,0.4746969836735434
0.0017834308769319094,0.32225120702148824,0.23694803964622438,0.4246759537300099
0.0019791668678535573,0.28379933970953497,0.19965264331132,0.37548606777520416
0.002196385372416547,0.24693704000962677,0.16444297409598735,0.3275828226345845
0.002437444150122222,0.21296032536909257,0.13355711439722454,0.28305960705550276
0.002704959730463137,0.18292323126584561,0.10868229334740356,0.2444266307636433
0.0030018358135755923,0.15710503599778738,0.08953349374561502,0.21215817036810497
0.003331294787934677,0.13549463764254194,0.0747999861588359,0.18543509621455823
0.0036969127071950323,0.11747163650546245,0.06319015998469305,0.16281436613385147
0.00410265810582719,0.10236007877057576,0.05396487596488112,0.1431813987665866
0.004552935074866948,0.08948047276825248,0.046608520874956684,0.12574605970347075
0.00505263106533568,0.07860292566407066,0.04085396642781196,0.11062183964891366
0.005607169938205458,0.06947261179132906,0.03647565292485668,0.0978122193659503
0.006222570836730231,0.06184525545557505,0.033281858523561046,0.0870901854360304
0.006905513520162331,0.05540025813720186,0.030943470205220664,0.07799170507348431
0.007663410868007463,0.04986976024904503,0.028875626025900658,0.07012043282154289
0.008504489341802686,0.04502279161702969,0.026469930980386004,0.06317536285943358
0.009437878277775391,0.04069171444435878,0.023717969966019107,0.05703362871199076
0.010473708979594508,0.03680254808703289,0.021086013313016416,0.051743542325711926
0.011623224686798541,0.03327825362938096,0.018801483368249532,0.047186175214762864
0.01289890261253308,0.030122387283894974,0.016781637881498692,0.04316117834342628
0.014314589375234785,0.02729345236686887,0.014877290891707194,0.03945126396802768
0.015885651294280528,0.02479068751174056,0.013090455419010862,0.03604791935143255
0.01762914118095948,0.02255639871794244,0.011474733158710646,0.032936344191061354
0.01956398343517065,0.020531134730035632,0.010125317298178454,0.0301345725779193
0.021711179456945052,0.01864003565711237,0.009085836382752168,0.027617378819081467
0.02409403560239527,0.01687384657307789,0.00824937899081941,0.025367419638182367
0.026738416158399492,0.015259288943170366,0.007440530243791529,0.023365538614194978
0.029673024081888724,0.01380269386742799,0.006595900190845486,0.021584179382829343
0.032929712550971546,0.01250748773995762,0.005767931862249577,0.020003267795910176
0.036543830709572546,0.011347862546278916,0.004974411025272374,0.018540349079036976
0.040554607358408275,0.010310180479771745,0.004190259574134504,0.017105105217611966
0.04500557675700498,0.009370895241787495,0.003416160576830863,0.015650723792095672
0.0499450511585514,0.00853600445980474,0.0027496998761121156,0.014297099384178861
0.05542664520663107,0.007798869277425127,0.0022719913959663536,0.01315716766411304
0.06150985788580504,0.007147636360230531,0.0019453425363791777,0.012264359049105807
0.06826071834272393,0.006561246496733711,0.0016659759408408116,0.011586571192914194
0.0757525025877192,0.00603189044839146,0.0013363392707385299,0.011080085366231847
0.08406652885618333,0.0055608742065952135,0.0009045434128765317,0.010695411596514178
0.09329304026284696,0.005141896824752908,0.000438877014355686,0.010381244913723582
0.10353218432956637,0.004766856466216302,0.00010389985320556721,0.010081215946983043
0.11489510001873086,0.004417646197270966,-5.651053676526236e-05,0.00971990647879813
0.1275051240713013,0.004081415750099116,-0.00017736337397646337,0.00923091404743437
0.1414991297434576,0.003746237382774685,-0.00037786900381493434,0.008592427520948614
0.15702901247293774,0.0034224138233688683,-0.0006409226066402584,0.007913459277267172
0.17426333860096507,0.0031207192318526518,-0.0008958234747481927,0.007300985983557154
0.19338917504552322,0.0028518838662036847,-0.0011030995894045288,0.006782770009557916
0.21461411978584058,0.0026201420617236494,-0.0012622586557363626,0.006341604959678565
0.23816855519761607,0.002420083628038592,-0.0014287620617390575,0.00599249254985878
0.2643081486974108,0.0022417420474545777,-0.0016657048246156568,0.005770300164899502
0.29331662783900486,0.002078275375219331,-0.001932098970958342,0.005644974601012565
0.32550885998350565,0.0019311227348449529,-0.002084008645889903,0.005520600703360635
0.36123426997094304,0.0017975269087731572,-0.0020637611777675705,0.005326964612608351
0.40088063288984643,0.001672622733046024,-0.001982286088143228,0.005076408321830978
0.4448782831127585,0.0015471367018675122,-0.0019639598008630377,0.004810808166169712
0.4937047852839004,0.0014162527148797038,-0.0020501998394669763,0.0045998371367728975
0.5478901179593945,0.0012799906585430462,-0.002213499519802387,0.004490105655117245
0.6080224261649427,0.0011540169427290113,-0.0023746883258851394,0.004466521964896232
0.67475440531107,0.0010575346540139864,-0.0024517084908409217,0.004471443916083491
0.748810385759003,0.0009897420001679727,-0.0024666396420257625,0.004458754641047033
0.8309941949353403,0.0009346697589658764,-0.0025098208543642923,0.004400353261041952
0.9221978823334341,0.0008819493387773652,-0.002598308792997176,0.0043016790599910365
1.0234114021054528,0.0008319545219934492,-0.0026537385046733492,0.004200926652538253
1.135733358343105,0.0007797653395982309,-0.0026239435890396587,0.004106012250236632
1.2603829296797273,0.000712302931937384,-0.0025536190656009405,0.003987064792397463
1.3987131026472386,0.0006243554921295942,-0.002509084765041623,0.003827538501979609
1.552225357427048,0.0005390881009090672,-0.002534210366989075,0.0036913098549991447
1.7225859653987874,0.0004828839146382489,-0.0026368501576947293,0.003637621632662153
1.9116440753857036,0.00045226924407486773,-0.0027779658805844277,0.003621876673384195
2.121451784910632,0.0004248273038374658,-0.0028902083976216414,0.0035422621915828824
2.35428641432242,0.0003874039756913005,-0.0029374563981474505,0.0033827129188913558
2.612675225563332,0.0003404458322206447,-0.002915634264791739,0.0032125443348063557
2.8994228538828812,0.0002907113951212711,-0.0028429404886854996,0.003077378984815487
3.2176417502507353,0.00024927602090127744,-0.0027626942672603545,0.0029787059442682013
3.5707859649004625,0.00022163378038635251,-0.002713505345729434,0.0029130304407708417
3.9626886387014784,0.00020400715501392628,-0.0027248672722819025,0.002904387109938387
4.397603609302721,0.00019054873745477638,-0.0027934927671312477,0.0029609006889627972
4.880251583654434,0.00017983042653273878,-0.002869606733430844,0.003042257069235312
5.415871378079476,0.00017257497586495725,-0.0029040403302002128,0.0030983358942262267
6.010276782070388,0.000168240498421338,-0.0029397341306096453,0.0031505162433219215
6.669919663030129,0.0001646617202548976,-0.0030610761242534108,0.0032529765708049093
7.401959996915652,0.00015938482872514457,-0.003259786976387199,0.0033962001487287683
8.214343584919439,0.00014980753964799514,-0.003428703232953669,0.0035059933052869643
9.115888299750837,0.00013333675398318308,-0.003499176391107284,0.003554104904724162
10.11637979766207,0.0001087214972104363,-0.0034918696137570594,0.003594148579974449
11.226677735108158,7.822138708506187e-05,-0.00343593268543795,0.003643000277566166
12.458833642950081,5.074471376075739e-05,-0.003330707257296884,0.0036128894795372044
13.826221737646593,3.388726292655818e-05,-0.0031155589159925397,0.003367129719846948
15.343684089300131,2.5187364651274475e-05,-0.0026759941109425686,0.002825617884728405
17.02769172225898,1.7874214951167578e-05,-0.001936741349344015,0.0019977987107319467
18.896523396912116,9.983857607490566e-06,-0.0010715782190921725,0.001089465445481138
20.970464013232306,3.964824111602926e-06,-0.00042211110545791044,0.00042612312636140787
23.27202478960412,1.0742367056300899e-06,-0.00011389885264176608,0.00011462386512238174
25.826187606826746,1.9540459133313006e-07,-2.068091169144387e-05,2.0785439107953295e-05
28.66067616948256,2.3711726115827285e-08,-2.5076681303727563e-06,2.5189947547014227e-06
31.80625692794119,1.914601466083561e-09,-2.0241876465776227e-07,2.032887839079259e-07
35.297073027306574,1.0276248096722237e-10,-1.0863061462876087e-08,1.0908788664392107e-08
39.17101490809261,3.664811684711129e-12,-3.873888552938073e-10,3.8900561990142247e-10
43.47013158125035,8.682740200723481e-14,-9.177898995642407e-12,9.216069384798466e-12
48.241087041653735,1.3665343204603322e-15,-1.444452850673288e-13,1.4504517471415984e-13
53.535666774107185,1.4286667905064855e-17,-1.5101229328850385e-15,1.516390961877404e-15
59.411339849650396,9.921633926220615e-20,-1.0487306379251806e-17,1.0530825659590983e-17
65.93188271333541,4.57694125672682e-22,-4.837888488304993e-20,4.857962433778719e-20
73.16807143427206,1.4025119727571015e-24,-1.482473691606451e-22,1.4886247144735706e-22
81.19844993184009,2.854805966785885e-27,-3.017567362862789e-25,3.030087544400881e-25
90.11018251665037,3.8599818649386295e-30,-4.080051325067985e-28,4.096979750661836e-28
100.0,3.466829874684359e-33,-3.664484473742768e-31,3.679688644271508e-31
