tau,gamma,gamma_lo,gamma_hi
1e-07,1.3817843361578883e-05,-7.138672055853981e-05,0.00010803166913985737
1.1097524964120721e-07,7.075639876092009e-05,-0.0003641963035282924,0.0005522809787672805
1.2315506032928263e-07,0.0002449515594325363,-0.0012496553688798099,0.0019043850380793866
1.3667163564620074e-07,0.0005869778208743042,-0.002933741752518288,0.004521972042796374
1.5167168884709241e-07,0.0010220430533033923,-0.004891137562158194,0.007722600428935778
1.6831803533309585e-07,0.0014017660325789068,-0.006205592821279006,0.010225349751071682
1.867913599020781e-07,0.0016614901076253557,-0.006592207935998257,0.011502024959769777
2.0729217795953698e-07,0.0018182364415392073,-0.006389596352910591,0.011782714932272733
2.300430119772917e-07,0.001903899779117353,-0.005964836457875382,0.011463180552069643
2.5529080682395163e-07,0.0019413052594978136,-0.0055448391249639855,0.01092602472018052
2.833096101839324e-07,0.0019380733743430882,-0.005228007734475269,0.010402037706447141
3.1440354715915e-07,0.0018980882606606938,-0.005044312925387085,0.009993379573552622
3.489101213406774e-07,0.0018240262256789376,-0.004991498181289635,0.009703482990987417
3.872038781812557e-07,0.001734806241896979,-0.005062003393290658,0.009488395377822919
4.2970047043208437e-07,0.001648668384771218,-0.005228862108954357,0.009277250506988887
4.768611697714474e-07,0.0015663007549070538,-0.005433552809794452,0.009041008602133863
5.291978735958437e-07,0.0014735663175684268,-0.0055930175945384025,0.008792640934043338
5.872786613189477e-07,0.001356455804991935,-0.005674821585110827,0.008604298579105985
6.517339604882421e-07,0.0012055143826264453,-0.005708155748079709,0.008568856358169903
7.232633896483533e-07,0.0010105314769887812,-0.005763282395024912,0.008603413936658243
8.026433522257174e-07,0.0007656757589096844,-0.005950206828420404,0.008422166486365353
8.907354638610439e-07,0.0004654898826160928,-0.006315583019245927,0.007873782090346636
9.884959046625586e-07,0.00011761767446214821,-0.006788316980767703,0.007226238539528201
1.096985797892384e-06,-0.0002584050242267947,-0.007269167004889074,0.0067906508971105105
1.217382727739662e-06,-0.0006239234345482689,-0.007751910330762978,0.006563843170589848
1.3509935211980278e-06,-0.0009368831638634703,-0.00824569583148128,0.006355829562332187
1.499268432786047e-06,-0.0012002660361480017,-0.008695281069489956,0.00606423739959322
1.6638168860761274e-06,-0.0014405556563899587,-0.008988402370399539,0.005693378816348651
1.8464249428955464e-06,-0.0016630061048339433,-0.009117051933357967,0.005288754597208024
2.049074689815846e-06,-0.0018415003476835847,-0.009201618830003222,0.004922398359907715
2.2739657523579273e-06,-0.0019621624076668898,-0.009345372626439159,0.004640690637765846
2.523539170434766e-06,-0.002043078447834699,-0.00959162302616985,0.00447105111176487
2.800503894183631e-06,-0.002088577665341993,-0.009896159897889625,0.004430999345414442
3.107866187782014e-06,-0.0020674835476013963,-0.010135777112001948,0.004545941651734424
3.4489622604057595e-06,-0.0019394111494332041,-0.0101505956399537,0.004820688634988677
3.827494478516315e-06,-0.0017148148018866073,-0.009880821779446625,0.0052077996665128344
4.247571552536894e-06,-0.0014315368013437108,-0.00934617409923525,0.005634824501359144
4.713753134116729e-06,-0.0011156582706374465,-0.00869689921005288,0.006096610049097805
5.2310993080562585e-06,-0.0007796271331790819,-0.008156922035077535,0.00662166764856028
5.805225516094895e-06,-0.0004175091291100552,-0.007771959096375096,0.00717654511920614
6.44236350872137e-06,-2.0545788567411115e-05,-0.007391718259766603,0.007640152145344824
7.149428986597577e-06,0.00040561029636883,-0.006888188444125587,0.007925389882670632
7.934096665797492e-06,0.0008211886462232655,-0.00630331972156242,0.008071082955132971
8.804883581643465e-06,0.0011908022797503285,-0.005721902749995623,0.008169369443621644
9.771241535346501e-06,0.0015184743281960737,-0.005210315593491567,0.008370150619032922
1.0843659686896109e-05,0.0018192184633840159,-0.0047851768043169,0.00879886040875047
1.2033778407775906e-05,0.0020985271842448527,-0.004399000002996601,0.009470139896958574
1.3354515629298974e-05,0.002338834164939469,-0.004001851235898527,0.010258225382798043
1.48202070579886e-05,0.0025093875604492643,-0.003673041814598095,0.01090489682202338
1.6446761779946626e-05,0.002567642145368904,-0.003606903370556264,0.011071293996366981
1.8251834943190462e-05,0.0024963910638136472,-0.003878382936776706,0.010694092621880391
2.0255019392306664e-05,0.002320655705088955,-0.004366208487004031,0.01009756465817654
2.2478058335487252e-05,0.0020679614836282196,-0.0048946293174249944,0.009547670246165176
2.4945081352303165e-05,0.0017690943663742978,-0.005314199081941981,0.009069676412148538
2.7682866303920665e-05,0.0014458736689148953,-0.005574571781267662,0.008580482960340745
3.072112998861759e-05,0.0011183719722537453,-0.005842373971543213,0.008074030805881073
3.409285069746814e-05,0.0008021180071273266,-0.006314525509679226,0.007601951669555524
3.783462617131933e-05,0.0004992559090393336,-0.00696076725109794,0.0072534364757455404
4.1987070844439056e-05,0.00020290074866831866,-0.007579767766667217,0.0071060550685759245
4.659525668664687e-05,-0.00010816210587165621,-0.008086669727515493,0.007105837295445205
5.170920242896755e-05,-0.0004556636868140681,-0.00854141683479998,0.007084738476920772
5.7384416483024044e-05,-0.0008342043056150171,-0.00901437226739375,0.006956593925168918
6.368249944718586e-05,-0.0011968352367254062,-0.009544249811260879,0.006792812127872841
7.067181273927492e-05,-0.0015186847064433161,-0.0101473770624479,0.006623531502964571
7.842822061337681e-05,-0.0018397668062420619,-0.010854061110720613,0.006347650725397059
8.703591361485166e-05,-0.002202416808180162,-0.011646383357748487,0.005871973526837201
9.658832241158708e-05,-0.0025904496478244853,-0.012438927999354326,0.005340994147532703
0.00010718913192051276,-0.0029457021074196323,-0.013113766825383889,0.005016481037873327
0.00011895340673703195,-0.0032350693797704145,-0.013712707733141954,0.005041651239161979
0.0001320088400831418,-0.0034499515536916534,-0.014428421721432987,0.005432210079516677
0.00014649713983072864,-0.0036200769358212797,-0.015563128191116845,0.006108868809430074
0.0001625755666443795,-0.003807442923462747,-0.01748614327192885,0.006923108156756615
0.00018041864093920718,-0.004051243514510738,-0.020380078759407703,0.0078052540451128425
0.00020022003718155845,-0.0043428826435319276,-0.024077967559280298,0.008849951574824128
0.0002221946860939524,-0.004616520049185011,-0.028246735932663337,0.01031785146926491
0.0002465811075822604,-0.004762409241802966,-0.03260232833389225,0.012682964910103482
0.0002736439997074672,-0.00472251380341157,-0.03744296039144708,0.016479214899216624
0.00030367711180354605,-0.004623188168669686,-0.044675381608330816,0.02226919532350169
0.00033700643292719284,-0.004383343521246619,-0.05726739885366681,0.031779422967586214
0.0003739937302478798,-0.0028832742939525527,-0.0778766949834808,0.050255783857995576
0.0004150404757850477,0.0023812988114467817,-0.10887358498171648,0.08751143835866738
0.00046059220411451084,0.015453549791518516,-0.15245156833804518,0.15716338906442787
0.0005111433483440171,0.04517950635854462,-0.20668983139073674,0.27871336166563376
0.0005672426068491978,0.11281111809606999,-0.2557136822266024,0.4807536603681412
0.0006294988990221888,0.2534631208117396,-0.2610681146242077,0.7953796854182267
0.0006985879746785249,0.48863628306504275,-0.181094669257558,1.2328148077116323
0.0007752597488629464,0.7887286001015215,0.000919460507900218,1.740631127885266
0.000860346441668451,1.092949905660479,0.265892429867261,2.2291968433789067
0.0009547716114208065,1.3383927288283608,0.5265441624186609,2.61857094315439
0.001059560179277617,1.4617103074434794,0.6580899995309211,2.8318147176108184
0.0011758495540521582,1.4393284898438736,0.6097656199922769,2.8392084686899666
0.0013049019780144017,1.2844734543167633,0.40927185519404724,2.6506405784872933
0.001448118227674533,1.0300979933040777,0.11420318029892726,2.296638140054186
0.0016070528182616384,0.7344753920971933,-0.19639606126317413,1.8426991653523355
0.0017834308769319094,0.44417433644684556,-0.47013516747389794,1.3559680896009478
0.0019791668678535573,0.18685722018892198,-0.7024471127589859,0.9148313382992976
0.002196385372416547,-0.02451141585796217,-0.9154813407254538,0.5774362827919933
0.002437444150122222,-0.19170984045155376,-1.1461359490690013,0.34730184698001126
0.002704959730463137,-0.3167729824901709,-1.4044250446703932,0.2046707472072532
0.0030018358135755923,-0.39490477012894937,-1.6190170377740558,0.1333815022168609
0.003331294787934677,-0.41370908284646624,-1.6714791807281817,0.13288448969611047
0.0036969127071950323,-0.3705598563195512,-1.5459541592773596,0.21924370778945912
0.00410265810582719,-0.27366317654591193,-1.3398413389891908,0.4154736623912837
0.004552935074866948,-0.12596335863477953,-1.1274804461179206,0.7154451203783239
0.00505263106533568,0.07508882553559303,-0.9203914804534599,1.0652488789829622
0.005607169938205458,0.3328906585215994,-0.7071792224263652,1.43311103316241
0.006222570836730231,0.6381123314144983,-0.48906685357015034,1.8530448378520483
0.006905513520162331,0.9705513705345326,-0.2644548156839474,2.3727820959226653
0.007663410868007463,1.2951153015776504,-0.015476800414123897,2.9866409166984953
0.008504489341802686,1.5486774454449939,0.24660318265337822,3.5887254661073995
0.009437878277775391,1.6461156395105294,0.40389739332113045,3.93417963644107
0.010473708979594508,1.5007535391246756,0.28873292882257384,3.71629991690089
0.011623224686798541,1.1411660172109561,-0.060077782855653676,2.9476139651102566
0.01289890261253308,0.7318062670797674,-0.3657889911046616,2.0221873709567384
0.014314589375234785,0.40244648662622795,-0.4493500552858319,1.258848079630278
0.015885651294280528,0.18768264159922668,-0.37722350821292755,0.7348780571422534
0.01762914118095948,0.0736910012964847,-0.2733506025481314,0.4140484819210067
0.01956398343517065,0.0245831190364619,-0.19060200084259693,0.2312216523702652
0.021711179456945052,0.006315544092639124,-0.13333835160182772,0.1312572312799586
0.02409403560239527,-0.00010505615788691668,-0.0952190596270009,0.07744347345052648
0.026738416158399492,-0.002480963366468245,-0.07113556390929035,0.04778310857706936
0.029673024081888724,-0.003463241740740368,-0.05622292988069793,0.03079684515339178
0.032929712550971546,-0.003744685617298139,-0.045717536586588545,0.0211944651669993
0.036543830709572546,-0.0035388909781827794,-0.03706974910361047,0.016120145584523904
0.040554607358408275,-0.003067832331785886,-0.0302618068655168,0.013444160047788763
0.04500557675700498,-0.002493485568066546,-0.025403040657236368,0.011859862541605242
0.0499450511585514,-0.0018934391697840302,-0.021563448299640468,0.010939728473969049
0.05542664520663107,-0.0012976682705942058,-0.01780083354254297,0.010554734748328213
0.06150985788580504,-0.0007371577346227471,-0.014262868160102199,0.010441851783388549
0.06826071834272393,-0.0002467743168917894,-0.01156525753790262,0.010290274137149733
0.0757525025877192,0.00015830331239940037,-0.009806329976766644,0.010037731769744207
0.08406652885618333,0.000472670263218787,-0.008683409246877449,0.009801211740259592
0.09329304026284696,0.0007126822838934411,-0.007930425943011054,0.009704359433967755
0.10353218432956637,0.0009037565982062701,-0.00742294909374551,0.00981304501392073
0.11489510001873086,0.0010551185294356523,-0.007067442749302629,0.010039905645911649
0.1275051240713013,0.0011519997457915723,-0.006763961848098367,0.0101404364656298
0.1414991297434576,0.0011779320386059318,-0.006459075418578888,0.009929674963356998
0.15702901247293774,0.0011374414376007936,-0.006218171177091705,0.009472579532530771
0.17426333860096507,0.0010423506982485367,-0.006125826823129047,0.008910756417801083
0.19338917504552322,0.0009134730263872492,-0.006215150328879931,0.008383529747064184
0.21461411978584058,0.0007675116399896442,-0.00646591152230884,0.007976058926544962
0.23816855519761607,0.0006032560373794916,-0.006821240032846313,0.007677450033717929
0.2643081486974108,0.00040961799584236254,-0.0071911342616501036,0.0074093441415773505
0.29331662783900486,0.0001851052067743985,-0.007506692124294469,0.0071037879081588115
0.32550885998350565,-5.24702893407338e-05,-0.007729726010155492,0.006734690046193596
0.36123426997094304,-0.00028299294981323536,-0.007881956758911516,0.006318646753325449
0.40088063288984643,-0.00048636681698076067,-0.008063126240942346,0.005941328455991273
0.4448782831127585,-0.0006587388902607042,-0.00830333668535058,0.00566482305435267
0.4937047852839004,-0.0008255091771769579,-0.008496692049496204,0.005497137906352213
0.5478901179593945,-0.001009940472387107,-0.008525534045572849,0.005420609397824481
0.6080224261649427,-0.0012025429070700506,-0.008475136795370609,0.005438682265889721
0.67475440531107,-0.0013730372651354493,-0.008505859490417166,0.005531536788569834
0.748810385759003,-0.0015110028193761474,-0.00864156571366928,0.0055885867254198635
0.8309941949353403,-0.001617745887337138,-0.008778277089675319,0.0054510729770192974
0.9221978823334341,-0.0016846246437271074,-0.008858479491312094,0.005133323809872526
1.0234114021054528,-0.0016880182122639108,-0.008914051747924744,0.00486006555430572
1.135733358343105,-0.001612592349856084,-0.008958362852138715,0.0047797869020285025
1.2603829296797273,-0.0014726604295019054,-0.00895429651546516,0.004851178826646896
1.3987131026472386,-0.001286450365674155,-0.00881396674292571,0.004979866333767077
1.552225357427048,-0.001073059154429088,-0.008462674322257096,0.00514394522539105
1.7225859653987874,-0.0008450364952634063,-0.007875235662283044,0.005377636115534534
1.9116440753857036,-0.0006084317357404583,-0.007215262717969329,0.005765312178191093
2.121451784910632,-0.0003701842841088385,-0.006716712759635645,0.006366167645083221
2.35428641432242,-0.00014385075664158828,-0.006416687250813533,0.007085909058183303
2.612675225563332,4.8753373354488885e-05,-0.006181652439657534,0.007685671173212996
2.8994228538828812,0.00020556786452722873,-0.005933781863125371,0.008017110222927193
3.2176417502507353,0.0003446537448994086,-0.005728091066085413,0.008080518640127633
3.5707859649004625,0.0004735475258164111,-0.005609269831953888,0.007903217708328922
3.9626886387014784,0.0005737124399777553,-0.005550127948416771,0.007534969705572233
4.397603609302721,0.0006309362283871349,-0.005488591630161939,0.007062824192004087
4.880251583654434,0.0006706184401962901,-0.005396514904117167,0.006703919894388425
5.415871378079476,0.000725796918698271,-0.005282134722188783,0.006648496859244661
6.010276782070388,0.000792574412958428,-0.005226844249422478,0.00681753058157295
6.669919663030129,0.0008402329661512322,-0.005322022461755562,0.006963801834922006
7.401959996915652,0.0008570104843412317,-0.005523153204202451,0.007002216403240723
8.214343584919439,0.0008526678725484453,-0.005672235288566087,0.007041926205294551
9.115888299750837,0.0008298707061802324,-0.005740582466910184,0.007195910962592829
10.11637979766207,0.0007767271198207257,-0.005900459398090303,0.007499717007160213
11.226677735108158,0.0006824692632583742,-0.00622654916546622,0.007846130070775453
12.458833642950081,0.0005563561760734603,-0.006499085082266583,0.007945473192150661
13.826221737646593,0.00041500937160230913,-0.006361736304767,0.007459556452064124
15.343684089300131,0.00027747281260445824,-0.005561123785851273,0.006250214109049537
17.02769172225898,0.0001621918897264301,-0.004042426300532279,0.0044020329959339796
18.896523396912116,7.829501288537244e-05,-0.0022379773768976797,0.002393845184247767
20.970464013232306,2.875981978579392e-05,-0.0008815287393747213,0.0009349476774408374
23.27202478960412,7.519565009560937e-06,-0.00023784536074986147,0.00025133014503046287
25.826187606826746,1.3472283957898482e-06,-4.318437031374747e-05,4.5562695227965395e-05
28.66067616948256,1.6246052585980082e-07,-5.236230421727971e-06,5.521134563770534e-06
31.80625692794119,1.3084348016139675e-08,-4.22664725331409e-07,4.455479619982563e-07
35.297073027306574,7.015474900645069e-10,-2.2682768035093628e-08,2.3908341138058877e-08
39.17101490809261,2.500870964082212e-11,-8.088916630072846e-10,8.525610700531114e-10
43.47013158125035,5.92409985412772e-13,-1.916400503617966e-11,2.019826307743041e-11
48.241087041653735,9.323009499160375e-15,-3.0161037579469573e-13,3.178857312137549e-13
53.535666774107185,9.746628157457712e-17,-3.1532265296091017e-15,3.32337017166589e-15
59.411339849650396,6.768644974890407e-19,-2.1898118884034813e-17,2.307968435108815e-17
65.93188271333541,3.1224240743852192e-21,-1.0101798488229428e-19,1.0646860364422975e-19
73.16807143427206,9.568025433072366e-24,-3.0954930947599556e-22,3.262515747569642e-22
81.19844993184009,1.9475652361802263e-26,-6.300859816535051e-25,6.640833045784004e-25
90.11018251665037,2.633301281555973e-29,-8.5193894045838e-28,8.979066765809508e-28
100.0,2.365090497832541e-32,-7.651661143304542e-31,8.064518731363248e-31
