tau,gamma,gamma_lo,gamma_hi
1e-07,5.218296290808955e-06,-2.8233937322119473e-05,4.7407570836299665e-05
1.1097524964120721e-07,2.669835887585518e-05,-0.00014467140301972414,0.00024230356259403007
1.2315506032928263e-07,9.224457008856948e-05,-0.000501610359858439,0.0008350946185573268
1.3667163564620074e-07,0.00022012327530534104,-0.001206034291810782,0.001980993837914119
1.5167168884709241e-07,0.00038062881343552005,-0.0021126480768958074,0.003379347066223055
1.6831803533309585e-07,0.0005196676268289513,-0.002917364082194642,0.00448425791218854
1.867913599020781e-07,0.0006262661073991424,-0.003452728780398606,0.00512796538762562
2.0729217795953698e-07,0.0007274876158166869,-0.0036975247848034668,0.005497716372334235
2.300430119772917e-07,0.0008374984483044283,-0.0037203876893073247,0.005749029041539638
2.5529080682395163e-07,0.0009425595953501479,-0.0036549688898309903,0.005894149060657803
2.833096101839324e-07,0.0010354313961127954,-0.0035917583593727625,0.005936811301565826
3.1440354715915e-07,0.0011380209676814617,-0.003545671039321537,0.005988766055115978
3.489101213406774e-07,0.001273030638001626,-0.003488079354611677,0.006145263088687308
3.872038781812557e-07,0.0014400695437282343,-0.0033936826547151123,0.006387489562097102
4.2970047043208437e-07,0.001622846737564099,-0.0032482533527171445,0.00662759796347432
4.768611697714474e-07,0.0018101255817995047,-0.003081033797954234,0.006822400174780932
5.291978735958437e-07,0.0019917805768376743,-0.002942861441895022,0.0069688123855574935
5.872786613189477e-07,0.0021636392583455765,-0.0028497695391239133,0.007109214236812241
6.517339604882421e-07,0.0023244342107667836,-0.0027760795137235874,0.007312164620638924
7.232633896483533e-07,0.0024813564631351037,-0.0026706008700408622,0.007597468679721317
8.026433522257174e-07,0.00265272719803854,-0.0024731866522497686,0.00792582688376279
8.907354638610439e-07,0.002846544434631046,-0.0021478772140759625,0.008262132233160819
9.884959046625586e-07,0.0030529959477164632,-0.0017331789747260234,0.008634687610028217
1.096985797892384e-06,0.0032469984033220312,-0.0013040697311762055,0.009025502237680012
1.217382727739662e-06,0.003408623003841984,-0.0009574647910322908,0.009298512575098271
1.3509935211980278e-06,0.0035195698591349227,-0.0007773336275882031,0.009278649188038314
1.499268432786047e-06,0.003590398565569592,-0.0007487351253945281,0.009010791639749478
1.6638168860761274e-06,0.0036456328705905703,-0.0007896312206155735,0.008711065600949384
1.8464249428955464e-06,0.003698115557261497,-0.0008491830496630539,0.00855285374918247
2.049074689815846e-06,0.003745522781811901,-0.0009209664628658859,0.008619120330939718
2.2739657523579273e-06,0.003778108789088728,-0.0009963353300335585,0.008861551947289962
2.523539170434766e-06,0.0037934727070166843,-0.0010419603154444362,0.009106772433288305
2.800503894183631e-06,0.0037890343379730425,-0.001029281492051493,0.009209660639922292
3.107866187782014e-06,0.0037779769724769516,-0.000966365608295091,0.009208748998345428
3.4489622604057595e-06,0.0037703720555438674,-0.0008688651617279663,0.009188240284117615
3.827494478516315e-06,0.003775785192267189,-0.0007403941917656121,0.009187004503320046
4.247571552536894e-06,0.003793403877282154,-0.0005917305926280767,0.009194267285512583
4.713753134116729e-06,0.0038142500758080195,-0.00048546927335327235,0.009217952406711
5.2310993080562585e-06,0.0038223420697370736,-0.0005183615830883807,0.009270511370668713
5.805225516094895e-06,0.003811720998526016,-0.0007035303615165515,0.009304974567187265
6.44236350872137e-06,0.0037954414089061113,-0.000946129885592144,0.009226804597600467
7.149428986597577e-06,0.0037873290685589383,-0.0011643569054954881,0.009021800531994941
7.934096665797492e-06,0.0038080785464565474,-0.00134123080499122,0.008864704913083669
8.804883581643465e-06,0.003870573857924527,-0.0014757580161602246,0.008922178357901142
9.771241535346501e-06,0.003985511311381028,-0.0015501775145529365,0.009225236607919884
1.0843659686896109e-05,0.004152629646032111,-0.0015356719672778632,0.009699541249724278
1.2033778407775906e-05,0.0043672060230495816,-0.0014301995769868982,0.0102376908741497
1.3354515629298974e-05,0.004616705402335243,-0.0012445261600504463,0.01071853120106939
1.48202070579886e-05,0.004900690008348046,-0.0009820167177060322,0.011115983817854438
1.6446761779946626e-05,0.005223340161237879,-0.0006449112668341491,0.011483533987907997
1.8251834943190462e-05,0.005583600488474176,-0.00025282077629218695,0.011889037621586574
2.0255019392306664e-05,0.005974669117901955,0.00014041441887875154,0.012400283463529985
2.2478058335487252e-05,0.006397815277171184,0.0004992128168498616,0.013030486245975925
2.4945081352303165e-05,0.006886048992363229,0.0008250178332894527,0.013749369854782222
2.7682866303920665e-05,0.007465331791714213,0.0011125412237155468,0.01454017424807831
3.072112998861759e-05,0.00814815482436732,0.0013180448078777337,0.01552723425030665
3.409285069746814e-05,0.00892795446331196,0.0014047537461919532,0.016856130189531207
3.783462617131933e-05,0.00982370250211829,0.0014490229777429982,0.01858050991237533
4.1987070844439056e-05,0.010853422676414632,0.0015830161227712144,0.020649667535291457
4.659525668664687e-05,0.012035973436549104,0.001818202063572475,0.023047165114091203
5.170920242896755e-05,0.013379661290348949,0.0020348344360150965,0.025776134440509305
5.7384416483024044e-05,0.014931370562095283,0.0021606494994541596,0.028867217024034466
6.368249944718586e-05,0.016793999333885225,0.0022678176955655063,0.032362994629238556
7.067181273927492e-05,0.019070622312083788,0.0025687260546955436,0.03629918006770551
7.842822061337681e-05,0.02185002297635343,0.0033984530755303585,0.040762167230181
8.703591361485166e-05,0.025181367520790494,0.004881468989167387,0.04584455316260524
9.658832241158708e-05,0.029129106604820695,0.006518121901624595,0.05184106246850692
0.00010718913192051276,0.03378916934927337,0.0077586662226111335,0.05928127092145209
0.00011895340673703195,0.039507206556003156,0.009177172351783558,0.06924182484014267
0.0001320088400831418,0.046713036371238185,0.012190484775892305,0.08267629636510025
0.00014649713983072864,0.05567576082662085,0.01760025371093306,0.09888749650350077
0.0001625755666443795,0.0663502087675485,0.025197519376384453,0.11538810343326127
0.00018041864093920718,0.07879289043124192,0.034424370067388285,0.13147311037400558
0.00020022003718155845,0.0932277054815277,0.04451744811337353,0.14966734179529673
0.0002221946860939524,0.1099256446775524,0.055184273950810374,0.17230619540096004
0.0002465811075822604,0.1291636411052735,0.06714769176356306,0.19904890793417343
0.0002736439997074672,0.15083012373402552,0.08138070323455547,0.22751044179004984
0.00030367711180354605,0.17451039312262334,0.09849962931468434,0.25511457210770605
0.00033700643292719284,0.1991781672969707,0.11866037943304683,0.2795186218452937
0.0003739937302478798,0.2243792571796722,0.1421532598926713,0.30221977351565915
0.0004150404757850477,0.24960820971241507,0.16867002232425962,0.327118355154958
0.00046059220411451084,0.2746290204327595,0.19670751250442317,0.3564111540706498
0.0005111433483440171,0.29909446602999024,0.22300110618544106,0.38908793614538223
0.0005672426068491978,0.3221865019554043,0.2451990116073987,0.42223145018607167
0.0006294988990221888,0.3429882784234797,0.263537688470872,0.45217235617899637
0.0006985879746785249,0.36018218322847156,0.27856296376830386,0.47558182768482415
0.0007752597488629464,0.37383609866556006,0.2909687586530471,0.4929961001659659
0.000860346441668451,0.3835350651717,0.3004040535629178,0.5045498392834209
0.0009547716114208065,0.38906144312048835,0.30649174199069,0.5086854059885131
0.001059560179277617,0.3896184662695247,0.30830868642683174,0.5025550533129897
0.0011758495540521582,0.38538073180118376,0.3056518112193496,0.48822018639331116
0.0013049019780144017,0.3773437755189793,0.2989084469689034,0.47227511185614257
0.001448118227674533,0.36569939764897597,0.28806387899547076,0.4575943778490049
0.0016070528182616384,0.3504913761621205,0.2733555264746413,0.4422443277320815
0.0017834308769319094,0.33146764008987456,0.2548655860568788,0.42300118636377115
0.0019791668678535573,0.31016517891519135,0.23414516770012617,0.39987948744817986
0.002196385372416547,0.28764811741697205,0.2123402862174535,0.37367533056969177
0.002437444150122222,0.2645343025589065,0.19012125670425536,0.346500016207559
0.002704959730463137,0.24076247773857837,0.16751818693189835,0.31992544739219597
0.0030018358135755923,0.21657667256271895,0.1444818277296865,0.29398180769429827
0.003331294787934677,0.1925847634093027,0.12129247260330704,0.2677217526412255
0.0036969127071950323,0.16894295345437732,0.09851391410790211,0.24056847943957524
0.00410265810582719,0.14592661305295926,0.07749867569633502,0.2132672691110168
0.004552935074866948,0.12363874307386823,0.058937134144735975,0.1862763855145299
0.00505263106533568,0.10286068719667456,0.0429932606664027,0.16041323778591127
0.005607169938205458,0.0841525663644129,0.02955378546655138,0.136211096871237
0.006222570836730231,0.06795475143595857,0.018641821481387627,0.11464341792466208
0.006905513520162331,0.05448889191394496,0.01044882247938015,0.09640574183049125
0.007663410868007463,0.04367312977443679,0.005044256958449785,0.08135002772375904
0.008504489341802686,0.03532055663219189,0.0023325912088749995,0.06893376694089266
0.009437878277775391,0.028972247285970244,0.0014267704838756316,0.058608271002057996
0.010473708979594508,0.024109602498677052,0.0009735043223605319,0.05006494921477853
0.011623224686798541,0.02030474892326392,0.0003395774368336462,0.04295496928165748
0.01289890261253308,0.017324255348995482,-0.00023965573806839145,0.0370090955058798
0.014314589375234785,0.014987683261333462,-0.0004967818949210461,0.03199961996588803
0.015885651294280528,0.013154668886810616,-0.0005265591021024286,0.02789423763857025
0.01762914118095948,0.011695515841102448,-0.0005028747141306546,0.024646867129671596
0.01956398343517065,0.010519243815059538,-0.0004611202490821786,0.022138950885385384
0.021711179456945052,0.009553588338782948,-0.0003875170440637642,0.020198789089291673
0.02409403560239527,0.008755061491152771,-0.00036074778339617976,0.018665992586188482
0.026738416158399492,0.008094662668795306,-0.0004847784926933355,0.01739756326806409
0.029673024081888724,0.007542284912331508,-0.0006881926460737883,0.01628912514316872
0.032929712550971546,0.007071905412538692,-0.0007575353945002384,0.01527660879273983
0.036543830709572546,0.006659074157291755,-0.0006243480903368794,0.014305250703756035
0.040554607358408275,0.006297873529296897,-0.00043352759878446283,0.013370601872526146
0.04500557675700498,0.0059787505146924776,-0.0003088206770857497,0.012510658855078115
0.0499450511585514,0.005704589801238063,-0.00023855229570595864,0.011869787284469567
0.05542664520663107,0.005471121234570639,-0.00018007088048572228,0.011541641840439022
0.06150985788580504,0.005279867546612556,-0.0001535606853521318,0.011465264132420556
0.06826071834272393,0.005121153630513612,-0.00020399246223598403,0.011468264306624436
0.0757525025877192,0.004976506229349648,-0.0003239115320290703,0.011378308083917626
0.08406652885618333,0.0048219209855599405,-0.0004657539544773398,0.011063556304400425
0.09329304026284696,0.004657338426756051,-0.0005976689101628861,0.01059474839833678
0.10353218432956637,0.004507205920207801,-0.0007098132504154807,0.010224909107041767
0.11489510001873086,0.004379054751483224,-0.0008079936610039347,0.010104828763373767
0.1275051240713013,0.0042618273317120365,-0.0009076512155392358,0.010204902624031897
0.1414991297434576,0.004134304327856046,-0.001018823810510191,0.010371888005427396
0.15702901247293774,0.003990798604075556,-0.0011418314977455109,0.010390031140463999
0.17426333860096507,0.003825844182066149,-0.0012818974632409102,0.010093756735597538
0.19338917504552322,0.003646703337697532,-0.0014693059561689287,0.009576814289406793
0.21461411978584058,0.003461441428444178,-0.001734991515795846,0.009044327068920204
0.23816855519761607,0.0032822777125365655,-0.0020682318493577645,0.008643393671000322
0.2643081486974108,0.0031200668884813257,-0.002406347476383769,0.008432219707361984
0.29331662783900486,0.002969274217404095,-0.0026594501607283077,0.00834414453574507
0.32550885998350565,0.00281317959221967,-0.0027349410024000405,0.008221136017792388
0.36123426997094304,0.002638106826185266,-0.0026651610291851206,0.007967962111211684
0.40088063288984643,0.0024511357424694714,-0.0026572923958593712,0.00763602527655631
0.4448782831127585,0.002261276767380127,-0.0028430597533861506,0.0072941989248187945
0.4937047852839004,0.0020823730394021805,-0.003107054760894636,0.006988705986043696
0.5478901179593945,0.0019193222894007883,-0.003269168005437225,0.006721584381724907
0.6080224261649427,0.0017640702133672266,-0.0033138302151838606,0.006470538186717927
0.67475440531107,0.0016043784100407377,-0.003319971340360452,0.006207457831100096
0.748810385759003,0.0014457414111621557,-0.003334739553261704,0.005956055365677659
0.8309941949353403,0.0013088185480709465,-0.0033607855947116205,0.005772021758159528
0.9221978823334341,0.0011997894701162946,-0.003405308068364361,0.005650400340129558
1.0234114021054528,0.0011088017975064925,-0.0034905000244356502,0.005525535591763938
1.135733358343105,0.001024645913318436,-0.0035986694368391374,0.005367355687560974
1.2603829296797273,0.0009464007521645969,-0.003659958738573171,0.005243922321242107
1.3987131026472386,0.0008741163744029855,-0.0036433844644031483,0.00520056707143392
1.552225357427048,0.0008067907005516778,-0.0036557890195500035,0.005188139978963641
1.7225859653987874,0.0007436928641297186,-0.0038064202257541324,0.005134527275854893
1.9116440753857036,0.0006911607785960733,-0.004037574278827374,0.005077627089757671
2.121451784910632,0.0006575271615191961,-0.004187040656991093,0.005107355276206798
2.35428641432242,0.0006402266863601173,-0.004191532742132988,0.00523532911047534
2.612675225563332,0.0006274094739414606,-0.004099191611939668,0.005387230665021516
2.8994228538828812,0.0006117102680345727,-0.0039890982544193865,0.005495436490682618
3.2176417502507353,0.0005955302208706078,-0.003946532240592352,0.005536036836889199
3.5707859649004625,0.0005837556573580361,-0.003996935531963565,0.005519025396339355
3.9626886387014784,0.0005816893407522044,-0.004084952289288006,0.0055038545200997435
4.397603609302721,0.000588828246641362,-0.0041426926879671545,0.005519916871724473
4.880251583654434,0.0005955830014764408,-0.004169264855019918,0.005528785722883347
5.415871378079476,0.0005909189186208267,-0.004184048496930491,0.0054739381702359315
6.010276782070388,0.0005786278913972158,-0.0041872815070301515,0.005398496414553284
6.669919663030129,0.0005702186792876606,-0.004164008238965089,0.005396539581045288
7.401959996915652,0.0005667150400275512,-0.00413567503724429,0.005481001883005443
8.214343584919439,0.0005577288137155758,-0.004154954273900802,0.005574056382652338
9.115888299750837,0.0005361184330889171,-0.004221780723707904,0.005608580644548541
10.11637979766207,0.0005051374899804382,-0.0042655043065884185,0.005576767000777376
11.226677735108158,0.0004699044781033614,-0.004226922862867901,0.005492349110770736
12.458833642950081,0.00043447523863566085,-0.004118760230880171,0.005378917822434463
13.826221737646593,0.0003947767456157499,-0.003905833258776381,0.005154775869457805
15.343684089300131,0.0003348815731378551,-0.0034206396143117708,0.004561250807394275
17.02769172225898,0.00024140119676986115,-0.002515083767362406,0.0033772608915761653
18.896523396912116,0.00013341447864362435,-0.0014041937926183325,0.0018925165046937951
20.970464013232306,5.2536827816628065e-05,-0.0005555018676468826,0.0007499447803799295
23.27202478960412,1.4174576551086558e-05,-0.0001501691417473571,0.0002028785454102331
25.826187606826746,2.573615496625544e-06,-2.7287573790124743e-05,3.687646025975426e-05
28.66067616948256,3.1205963504716015e-07,-3.3098016446879272e-06,4.473411950441501e-06
31.80625692794119,2.5189279904129242e-08,-2.672011004216108e-07,3.611574208158726e-07
35.297073027306574,1.3518116807904568e-09,-1.4340432181126672e-08,1.9383366342688606e-08
39.17101490809261,4.820706237837757e-11,-5.114065092833281e-10,6.912525142464828e-10
43.47013158125035,1.1421066282371046e-12,-1.2116190629130961e-11,1.6377137315605897e-11
48.241087041653735,1.797490819240124e-14,-1.9068989939712623e-13,2.577508803598737e-13
53.535666774107185,1.8792111738119282e-16,-1.993596339188185e-15,2.694696931808177e-15
59.411339849650396,1.3050502313548102e-18,-1.3844877754726408e-17,1.8713797253845745e-17
65.93188271333541,6.020313698825937e-21,-6.386767734528316e-20,8.632845237018268e-20
73.16807143427206,1.8448041243788428e-23,-1.9570967868973991e-22,2.645362251708589e-22
81.19844993184009,3.7550890371433835e-26,-3.9836603134559297e-25,5.38462115870717e-25
90.11018251665037,5.077254009250828e-29,-5.386305202866456e-28,7.280543733465881e-28
100.0,4.5601187334803913e-32,-4.837692061962048e-31,6.538996098915304e-31
