tau,gamma,gamma_lo,gamma_hi
1e-07,9.55939599184003e-06,-1.8983785479069026e-05,5.563097263294774e-05
1.1097524964120721e-07,4.8901711022941816e-05,-9.68839909764077e-05,0.0002838208112156161
1.2315506032928263e-07,0.00016889231713030124,-0.0003327118157275358,0.000973938280484166
1.3667163564620074e-07,0.0004025527310014686,-0.0007825746774493702,0.0022871477239711576
1.5167168884709241e-07,0.0006933651143332407,-0.0013098154202343018,0.003818233036609366
1.6831803533309585e-07,0.0009344314531863885,-0.001672425421895777,0.0048715562762961075
1.867913599020781e-07,0.0010858537497401635,-0.0017883016876524718,0.005273072833260276
2.0729217795953698e-07,0.0011713272314095278,-0.0017393902206258027,0.005336800472532622
2.300430119772917e-07,0.0012153104463105858,-0.0016390461863749412,0.0052934922216188365
2.5529080682395163e-07,0.0012240415608065066,-0.0015893955752670915,0.005132720301942054
2.833096101839324e-07,0.0012006528491548334,-0.0016311551356059043,0.0048128332346284615
3.1440354715915e-07,0.0011632172503933242,-0.0017238042337185096,0.004430574495691835
3.489101213406774e-07,0.0011246755239494005,-0.001810388799275239,0.004099938295869326
3.872038781812557e-07,0.001080992346714648,-0.001879404680832333,0.00385987304876606
4.2970047043208437e-07,0.0010200490164012804,-0.001949022988569006,0.003697148149096671
4.768611697714474e-07,0.0009441044746572937,-0.0020528547009802927,0.0035949950744299437
5.291978735958437e-07,0.0008674640536857608,-0.0022091647182731545,0.003542473744051629
5.872786613189477e-07,0.0008039676395140164,-0.0023681101562837543,0.0035344923430188887
6.517339604882421e-07,0.0007654790729579155,-0.0024255110694572112,0.003566121879508528
7.232633896483533e-07,0.0007543654776653615,-0.0023613729557493994,0.0036150790895493686
8.026433522257174e-07,0.0007631008082746506,-0.0022885303773644353,0.003644355310581291
8.907354638610439e-07,0.0007816312881869563,-0.0022876209342475007,0.0036356757198747897
9.884959046625586e-07,0.000803850525881629,-0.0023130653282728273,0.0036300793458478313
1.096985797892384e-06,0.000828636250456964,-0.0022907363113859897,0.003669171193290531
1.217382727739662e-06,0.0008660701627815792,-0.002237543996909726,0.003754893178872552
1.3509935211980278e-06,0.0009283071919077443,-0.0022046969096870795,0.003867844184026165
1.499268432786047e-06,0.0010179395470793768,-0.0021784109902659586,0.004023800164233829
1.6638168860761274e-06,0.0011294041703129789,-0.0020955533103454724,0.004258775637149979
1.8464249428955464e-06,0.0012633946053519263,-0.0019489141986313034,0.004576414393525913
2.049074689815846e-06,0.0014256083549413268,-0.0018028905255888265,0.004934385402976081
2.2739657523579273e-06,0.001613692035239371,-0.0016877156635423845,0.0052877591914356065
2.523539170434766e-06,0.0018098325969583585,-0.0015654145033795386,0.005608797633423572
2.800503894183631e-06,0.0019949122674852732,-0.0014008826410269112,0.005868003535405811
3.107866187782014e-06,0.002165158811284813,-0.0012263169525678608,0.006048042556204697
3.4489622604057595e-06,0.0023212658562689384,-0.0010811259794716547,0.006133661722175513
3.827494478516315e-06,0.00247308811955341,-0.0009427013671791203,0.006158519316153097
4.247571552536894e-06,0.002627620311206575,-0.0007626063801170661,0.006171428032550973
4.713753134116729e-06,0.0027883041950809064,-0.0005538803825657768,0.006212130571668092
5.2310993080562585e-06,0.0029527058830427443,-0.000383628716102537,0.006308646239919372
5.805225516094895e-06,0.003124908543529214,-0.000273991475899536,0.006485074256762743
6.44236350872137e-06,0.0033171596231949077,-0.000183074117156027,0.006764650996850212
7.149428986597577e-06,0.003534510226590681,-6.856870860948478e-05,0.007133244106687947
7.934096665797492e-06,0.0037745853742500515,7.586741926665474e-05,0.00753561314681545
8.804883581643465e-06,0.004034553327461313,0.00023282341040160992,0.007932552812552188
9.771241535346501e-06,0.004333877537569326,0.000368672493872055,0.008383490222297311
1.0843659686896109e-05,0.004688658310907817,0.00045980289110087667,0.008943483418002158
1.2033778407775906e-05,0.0051017795399148575,0.0005380374730214453,0.009571805484169048
1.3354515629298974e-05,0.005562566378819271,0.0006731140086794479,0.010172875273505312
1.48202070579886e-05,0.006089309275248192,0.000925804442300575,0.010794679744702163
1.6446761779946626e-05,0.006720194556097257,0.0013334758759941836,0.01161148866825933
1.8251834943190462e-05,0.007486949662831923,0.001892123692880213,0.012734935122400825
2.0255019392306664e-05,0.008398046770707723,0.002547444684700695,0.014140542681623559
2.2478058335487252e-05,0.00944043352485492,0.003273116151415854,0.015720723898304232
2.4945081352303165e-05,0.010586423480559682,0.004102161891406574,0.017333189734937707
2.7682866303920665e-05,0.011805654422574856,0.0050621865909776746,0.018898507519125245
3.072112998861759e-05,0.013122844944062918,0.006117739076220589,0.020587334995745724
3.409285069746814e-05,0.014560249586359531,0.007199439120125856,0.022577119997374218
3.783462617131933e-05,0.016145795202559484,0.00831243634185215,0.024811354896794362
4.1987070844439056e-05,0.017871991872573652,0.009514088055687438,0.027034401949231648
4.659525668664687e-05,0.01974810856727843,0.01091294921386206,0.029207857583045123
5.170920242896755e-05,0.021770961773147076,0.012595226527772355,0.0314975474517217
5.7384416483024044e-05,0.023935853129928884,0.014467654186715109,0.03399305819475851
6.368249944718586e-05,0.026239648639047545,0.01620168101243769,0.03664331633414568
7.067181273927492e-05,0.028675381389845534,0.01759727305583764,0.039470507600888306
7.842822061337681e-05,0.03130333823368628,0.0188946248146845,0.04283256797854622
8.703591361485166e-05,0.034151058443384716,0.020412882702564358,0.04700211771197376
9.658832241158708e-05,0.03728394436035405,0.022279826318406408,0.051875469964403634
0.00010718913192051276,0.04072949111712123,0.02443843476197934,0.05706770234564061
0.00011895340673703195,0.044632376428097205,0.026847199803591057,0.06252842752307804
0.0001320088400831418,0.0491589593061459,0.029502910908692517,0.06847876642033703
0.00014649713983072864,0.05451184674485844,0.03260629507193847,0.07550564370244087
0.0001625755666443795,0.0608756003726018,0.03647688399399501,0.0844153041306901
0.00018041864093920718,0.06845612857649512,0.04114222471338792,0.09568061914836876
0.00020022003718155845,0.07752567043789008,0.046187573241134726,0.1091726000411284
0.0002221946860939524,0.08842759589254257,0.0514087864470335,0.12460903426675296
0.0002465811075822604,0.10175506965586156,0.0575587615924907,0.14215428276596143
0.0002736439997074672,0.11811927505538805,0.0659537297814229,0.16248128676016055
0.00030367711180354605,0.13822655372608783,0.07822058650793796,0.18753425586336228
0.00033700643292719284,0.16241135565961826,0.09566144955669166,0.21887048264759626
0.0003739937302478798,0.19062166250879653,0.11816887383755961,0.2554583280162901
0.0004150404757850477,0.22198396058486475,0.14439890757830365,0.2937707212933358
0.00046059220411451084,0.2559652740644167,0.17441929084220223,0.33300192825598757
0.0005111433483440171,0.29192251713290357,0.20937700609964338,0.3752873807182873
0.0005672426068491978,0.32871285543192136,0.24864097373665522,0.42111217236614945
0.0006294988990221888,0.36445526658481536,0.28777883068119037,0.46687935504569
0.0006985879746785249,0.3966061726541417,0.3217492801992128,0.5072805693366906
0.0007752597488629464,0.42385413509151676,0.3489951844081401,0.539703303304687
0.000860346441668451,0.4442610363430225,0.36860574187696243,0.5621362400560772
0.0009547716114208065,0.45682413230932795,0.38014913840977743,0.5757072324746881
0.001059560179277617,0.4600579538039278,0.3822100766547147,0.5820059879669192
0.0011758495540521582,0.45360032742226253,0.3740136363956395,0.5822236877894951
0.0013049019780144017,0.43787692249355475,0.35509552738182804,0.5757729344659079
0.001448118227674533,0.41263227961688037,0.3239787637192304,0.5578581244664607
0.0016070528182616384,0.37838952920533864,0.28027281974945817,0.5212915431315489
0.0017834308769319094,0.3364162491582305,0.22754959815023643,0.4637587510955879
0.0019791668678535573,0.29203692816326404,0.1784037379603526,0.3971511525054789
0.002196385372416547,0.25017719372754293,0.1436813469136943,0.33486797562395876
0.002437444150122222,0.21312545067980168,0.1220186989897536,0.2829756678828839
0.002704959730463137,0.18134648116355992,0.10611665506297857,0.2421414049335465
0.0030018358135755923,0.15439864148898677,0.09161745572081723,0.20986566721468913
0.003331294787934677,0.13186057755630512,0.0778492180492699,0.18286506689378348
0.0036969127071950323,0.11314118249673571,0.06560511862889602,0.15896879873671962
0.00410265810582719,0.09791652892293429,0.05628458544383626,0.1378613393333744
0.004552935074866948,0.08563589738368119,0.05004117548154724,0.11961999271145392
0.00505263106533568,0.07573555169727583,0.045443804199561726,0.10471752432032225
0.005607169938205458,0.06761200968115007,0.041129666890185726,0.09307782433414581
0.006222570836730231,0.06089206202530217,0.037055628099685774,0.08389974654747541
0.006905513520162331,0.0552198002800217,0.03358619145562948,0.07621242246737349
0.007663410868007463,0.05024914952981012,0.03064578072958984,0.06970220582514183
0.008504489341802686,0.045653481592249384,0.02786914580992092,0.06431459204173538
0.009437878277775391,0.04131798041646748,0.02514587748432869,0.059574885544864745
0.010473708979594508,0.037333163490645166,0.02263373621196616,0.05472194598056877
0.011623224686798541,0.03372508773984779,0.02036362888440133,0.04946658135203636
0.01289890261253308,0.030506419196152833,0.018225662599490818,0.0442825257440845
0.014314589375234785,0.027605254233268574,0.016103452054075637,0.03959806454217529
0.015885651294280528,0.02498587488549521,0.014051248684854217,0.03566895362563831
0.01762914118095948,0.02258397687493479,0.012169307907258781,0.0324734415260555
0.01956398343517065,0.020393758451810396,0.010594542150104235,0.029797841025368445
0.021711179456945052,0.018406530804495058,0.009390495419095144,0.02737961994238733
0.02409403560239527,0.016624525872162347,0.008415678391860373,0.025171267522124324
0.026738416158399492,0.015046550473024502,0.0074429939770735256,0.02322229913131614
0.029673024081888724,0.013639103072857263,0.006414806278410824,0.02144623642580529
0.032929712550971546,0.012367075029756638,0.005447548209415682,0.019671691625799532
0.036543830709572546,0.01119933641261446,0.004608394537443829,0.017875678590208496
0.040554607358408275,0.010152593798374502,0.003886424602888928,0.01629564113654005
0.04500557675700498,0.0092244354768514,0.003271521768076722,0.015051934108049742
0.0499450511585514,0.008409619864886198,0.0028160761173190918,0.01402959428509737
0.05542664520663107,0.007686611570077365,0.0025357478865136204,0.013064916227690354
0.06150985788580504,0.007049014732432609,0.002312028080066919,0.012182030108422897
0.06826071834272393,0.006486462485017069,0.001989063061047115,0.01145937870864293
0.0757525025877192,0.0059817824831535195,0.0015388290559829128,0.010869680645724392
0.08406652885618333,0.005517027455882278,0.0010445285625677696,0.01030362285525338
0.09329304026284696,0.005091154454570578,0.0006193704511210805,0.009705460717555646
0.10353218432956637,0.004725254418215809,0.00037461103190796527,0.009103664474074128
0.11489510001873086,0.004416183244187604,0.0003007715056227519,0.008537896024031764
0.1275051240713013,0.004138591442552575,0.00024283585967692397,0.008062321259412045
0.1414991297434576,0.003865507789534278,8.146614511702888e-05,0.007693915254394761
0.15702901247293774,0.00360203120291232,-0.00015600310675986892,0.007417484411879727
0.17426333860096507,0.0033554112507714505,-0.0003965610271710992,0.007187070389101554
0.19338917504552322,0.0031265533189126795,-0.0006146042823001988,0.006960605167098287
0.21461411978584058,0.002908300378056955,-0.0008110691455121581,0.00670007952099698
0.23816855519761607,0.002698845062849025,-0.0009778893903584348,0.006415344463013078
0.2643081486974108,0.0025020004639325125,-0.0010942491976263678,0.006145435449856891
0.29331662783900486,0.002319150937699691,-0.0011635744353481637,0.005910731670297218
0.32550885998350565,0.0021520635073724514,-0.001214983028956124,0.00571023392422082
0.36123426997094304,0.0019945394768949463,-0.0012668943475779158,0.005517037663419579
0.40088063288984643,0.0018388551358320682,-0.0013158734813528018,0.00529824937688209
0.4448782831127585,0.0016782465857660622,-0.0013526432070459407,0.005030302437582612
0.4937047852839004,0.001520437328387059,-0.0013821833010496402,0.004744195340520273
0.5478901179593945,0.0013739544060579222,-0.001422576158761421,0.0044819991491472306
0.6080224261649427,0.001241378793938066,-0.001511760921751009,0.004280086988197676
0.67475440531107,0.0011208468579994035,-0.0016810076782945087,0.004160706801159224
0.748810385759003,0.0010112954969233715,-0.001905834788332409,0.004124790482515427
0.8309941949353403,0.0009137991193314249,-0.0021167912667363104,0.004147070649213784
0.9221978823334341,0.0008251384156670787,-0.0022812488277067283,0.0041673302809323775
1.0234114021054528,0.0007395010625255522,-0.0024143042872760974,0.004102156130448191
1.135733358343105,0.0006513130028134648,-0.002527698887770338,0.003925280195664047
1.2603829296797273,0.00056091652790754,-0.0026120512169404957,0.003721554259116127
1.3987131026472386,0.0004699913079135986,-0.0026538227259400534,0.003562393073293186
1.552225357427048,0.00038304247383095846,-0.002667803342997563,0.003433881756726624
1.7225859653987874,0.0003067577513880934,-0.0026715331725583537,0.003298633241620722
1.9116440753857036,0.0002502319078289693,-0.0026715984457795026,0.003197922315050554
2.121451784910632,0.00022178199816724363,-0.0026638252871472867,0.0032013494976681
2.35428641432242,0.00021615627485105618,-0.0026534253139423765,0.0032777581675766873
2.612675225563332,0.00021686420537543648,-0.002651483541092263,0.0033050203180405276
2.8994228538828812,0.00021257427966220652,-0.0026505046201204547,0.003223020855141838
3.2176417502507353,0.00020290521490875355,-0.002623982909215152,0.0030851906108529305
3.5707859649004625,0.00019603872203848122,-0.00255485757992392,0.002970150731533184
3.9626886387014784,0.00020742054043159568,-0.00246483187679242,0.0029465331542227117
4.397603609302721,0.00024295110304996926,-0.0023798636256394485,0.0030244778270011835
4.880251583654434,0.00028158855039719504,-0.0023164234954106537,0.0031156175349283275
5.415871378079476,0.00029357877699175914,-0.0022785984598757756,0.0031036169236242847
6.010276782070388,0.00027250557316367617,-0.002265514878554334,0.0029762711944980873
6.669919663030129,0.000230905353327214,-0.0022717205169240228,0.002799040666453456
7.401959996915652,0.00018628460351992847,-0.00229178586333772,0.0026422021123265306
8.214343584919439,0.000156397595116211,-0.0023251630797893265,0.002565921892535135
9.115888299750837,0.00014599405606305322,-0.0023869709689395796,0.0025925469625848285
10.11637979766207,0.00014459916361448554,-0.0025055471063136865,0.0027015076555788956
11.226677735108158,0.00014268924755613958,-0.0026589942678601594,0.002840063194336092
12.458833642950081,0.00014083039237243767,-0.0027325578964601076,0.0029219342026207515
13.826221737646593,0.0001395047428850836,-0.0025880207943134188,0.002832620977908135
15.343684089300131,0.00012918075442537347,-0.0021753867534266393,0.0024696942480652577
17.02769172225898,9.900873888173782e-05,-0.0015330301978814895,0.0017959874936053217
18.896523396912116,5.653655298073242e-05,-0.0008336092990968817,0.000995035869572795
20.970464013232306,2.2599266048605985e-05,-0.00032554093103175633,0.000392113340720319
23.27202478960412,6.136431198459549e-06,-8.750564814900251e-05,0.00010581805912141651
25.826187606826746,1.1171140071598222e-06,-1.5863125364946757e-05,1.921455260516357e-05
28.66067616948256,1.3560017569301972e-07,-1.922217555673179e-06,2.329906086226238e-06
31.80625692794119,1.0950371301438692e-08,-1.5511955498118002e-07,1.8807115831445374e-07
35.297073027306574,5.877687302817666e-10,-8.323781454002373e-09,1.0093107509962829e-08
39.17101490809261,2.0961975555453604e-11,-2.9682219499952625e-10,3.5993185306693635e-10
43.47013158125035,4.966390331913557e-13,-7.032095449338377e-12,8.527399992347583e-12
48.241087041653735,7.816386053212635e-15,-1.10673006845358e-13,1.3420750805365447e-13
53.535666774107185,8.171785900816139e-17,-1.1570426537720795e-15,1.4030908031056779e-15
59.411339849650396,5.675046974770403e-19,-8.035270605121366e-18,9.744003789857848e-18
65.93188271333541,2.61795208658542e-21,-3.70674061526559e-20,4.4949963932688646e-20
73.16807143427206,8.022190498776893e-24,-1.1358559399239003e-22,1.3774013077106563e-22
81.19844993184009,1.63291284190401e-26,-2.312028579743409e-25,2.803693086557058e-25
90.11018251665037,2.2078607514171143e-29,-3.1260925891016663e-28,3.790872025951511e-28
100.0,1.9829828025921838e-32,-2.8076895842718e-31,3.4047590529853318e-31
