tau,gamma,gamma_lo,gamma_hi
1e-07,1.8426557006525664e-05,-2.7233270933375305e-05,9.876300450192203e-05
1.1097524964120721e-07,9.423829212674856e-05,-0.00013890684318526087,0.000504007598781937
1.2315506032928263e-07,0.0003252711357390827,-0.00047639569392780216,0.0017305823573385175
1.3667163564620074e-07,0.0007741502964406322,-0.0011173932007544792,0.004069330361994386
1.5167168884709241e-07,0.0013290596988512877,-0.0018615309161623215,0.006807911532353324
1.6831803533309585e-07,0.0017792048048888968,-0.002371835834562669,0.008692544301871625
1.867913599020781e-07,0.0020425808105256405,-0.0025854064702025806,0.009318528842681908
2.0729217795953698e-07,0.0021610700085612877,-0.002693308340889267,0.009126197152927694
2.300430119772917e-07,0.0021839685969661103,-0.0028272974710501267,0.008625460305070293
2.5529080682395163e-07,0.0021327916768396145,-0.0029732988794660604,0.00816576153331558
2.833096101839324e-07,0.002016958602117177,-0.0031096757590449416,0.007881035283050362
3.1440354715915e-07,0.0018633274555605115,-0.0032979511721136115,0.00772290431347495
3.489101213406774e-07,0.0016942565905004002,-0.0035878779162807676,0.007573051731154178
3.872038781812557e-07,0.0015205299213620041,-0.003927679869392122,0.007357677212600974
4.2970047043208437e-07,0.0013417791150685217,-0.004214836008887563,0.007042639844472009
4.768611697714474e-07,0.0011539332276249844,-0.004414061292285954,0.006675896945838999
5.291978735958437e-07,0.000953658889800947,-0.004542082876536172,0.006334851437379082
5.872786613189477e-07,0.0007417354014098407,-0.004643740311062628,0.006016260340095967
6.517339604882421e-07,0.0005287129389618511,-0.0047724043632353386,0.0056495560744685685
7.232633896483533e-07,0.00032575960866040285,-0.004942607204267166,0.005214093204042906
8.026433522257174e-07,0.00014707389828677654,-0.00512423856216643,0.004806926350916994
8.907354638610439e-07,-3.3955773570291245e-06,-0.005282668657573072,0.00452065361303166
9.884959046625586e-07,-0.0001390000626824152,-0.00542579354824095,0.004385607307648495
1.096985797892384e-06,-0.0002744273230039287,-0.005574391685326719,0.004367640860048028
1.217382727739662e-06,-0.0004104142091889453,-0.005763039764186298,0.004372731972020426
1.3509935211980278e-06,-0.0005339648912224192,-0.005994829440336232,0.004301538596359929
1.499268432786047e-06,-0.0006269744681992187,-0.006203661096774365,0.004172453844193102
1.6638168860761274e-06,-0.0006669576296918115,-0.006286442444087786,0.004083942680841654
1.8464249428955464e-06,-0.0006438485193330072,-0.0062619597745870205,0.0040761029821983425
2.049074689815846e-06,-0.0005621944036064635,-0.006274016318149436,0.0041151990864158145
2.2739657523579273e-06,-0.00043097494768182785,-0.006361155934612079,0.004180060132785173
2.523539170434766e-06,-0.0002657011412996991,-0.006378969671430913,0.004311934132114056
2.800503894183631e-06,-7.472652732274825e-05,-0.006184515358111608,0.004558819809820768
3.107866187782014e-06,0.00014414988227317693,-0.005818032848793128,0.004942518154872037
3.4489622604057595e-06,0.00040124663973629997,-0.005370309671057657,0.005445148833761213
3.827494478516315e-06,0.0007103512056566514,-0.004877375053622697,0.00600818226616911
4.247571552536894e-06,0.0010795064389424551,-0.00433662238122517,0.006555310807806424
4.713753134116729e-06,0.0015003690379817296,-0.0037837738520571196,0.007092781476174013
5.2310993080562585e-06,0.0019450892863324635,-0.0033030492218004553,0.0076839448744683665
5.805225516094895e-06,0.0024004603388022997,-0.002942367550204194,0.008376887668668297
6.44236350872137e-06,0.0028673965684691567,-0.0026994246382767615,0.009172521915032088
7.149428986597577e-06,0.003356450817798472,-0.002515559783743162,0.010029016858484145
7.934096665797492e-06,0.0038836684406283024,-0.0022835221758905773,0.010874582436452169
8.804883581643465e-06,0.004455368371585294,-0.0019297847068422153,0.011647242730139744
9.771241535346501e-06,0.005066886370271085,-0.0015051275525117128,0.012386464636494272
1.0843659686896109e-05,0.005697860967521153,-0.001083242752542104,0.013153841895442914
1.2033778407775906e-05,0.00634222921254931,-0.0006354853025746915,0.014020002562925689
1.3354515629298974e-05,0.006991757698750497,-8.501980738771508e-05,0.015013733210477236
1.48202070579886e-05,0.007661891973698817,0.0005493922995285973,0.01611887005057136
1.6446761779946626e-05,0.00837589227801462,0.001148053658514633,0.017264874955888597
1.8251834943190462e-05,0.009157640987912148,0.0016666125623277278,0.018416122180268384
2.0255019392306664e-05,0.010024518335884955,0.0021746621029708623,0.019597086563293266
2.2478058335487252e-05,0.010974574982529739,0.0027394930644953183,0.02082150212483675
2.4945081352303165e-05,0.011997595024734437,0.0033579621733530675,0.022110596799011156
2.7682866303920665e-05,0.013072661550777092,0.004006277748816265,0.0234677158431547
3.072112998861759e-05,0.014223928157311539,0.004699761381103996,0.024975890747583555
3.409285069746814e-05,0.015460807349621644,0.005449153875341721,0.02668064977694265
3.783462617131933e-05,0.01679022952431698,0.006223592552988408,0.0285731727664366
4.1987070844439056e-05,0.018187650903536204,0.006967915234386865,0.030572231656645132
4.659525668664687e-05,0.0196771961288003,0.007738662726830117,0.03272028249890689
5.170920242896755e-05,0.02131059905154268,0.00867815019487712,0.035150237132517366
5.7384416483024044e-05,0.023124393190727278,0.009822545479031873,0.03791548192539637
6.368249944718586e-05,0.02512985949664984,0.011039777067131929,0.0409432546030613
7.067181273927492e-05,0.02730737808816363,0.012259657096440864,0.04412684010500158
7.842822061337681e-05,0.029673260571940353,0.013652692822595671,0.04751346880103709
8.703591361485166e-05,0.03222430877251762,0.015384514194439366,0.051153462919760126
9.658832241158708e-05,0.03504351281523328,0.017380796211341126,0.055223202265151136
0.00010718913192051276,0.038177628217047344,0.01933942411805845,0.059876510115057284
0.00011895340673703195,0.04168645924570724,0.020950631751155968,0.06537074892640524
0.0001320088400831418,0.04559519431610261,0.021995723450567144,0.0718449241599138
0.00014649713983072864,0.050089659375805354,0.022799915833626814,0.07916745887100636
0.0001625755666443795,0.055505768084359315,0.024176758701449346,0.08698452183484426
0.00018041864093920718,0.062189825889218016,0.026404086131096793,0.09567007567791411
0.00020022003718155845,0.07046089591886101,0.028811811362871358,0.10679743987835544
0.0002221946860939524,0.08060018512768692,0.030730311401321028,0.12168316515148804
0.0002465811075822604,0.09299448517265571,0.03245401852125519,0.14048448317480447
0.0002736439997074672,0.1081638473368689,0.035196062631358487,0.16309712452034197
0.00030367711180354605,0.12718632508513858,0.04135216693238712,0.19101423185129127
0.00033700643292719284,0.15128170031535088,0.053929952092196726,0.2273459223535612
0.0003739937302478798,0.18156651877867905,0.07488421217488962,0.27707329438315936
0.0004150404757850477,0.2181997923480712,0.10476487972631138,0.34313633733203114
0.00046059220411451084,0.259996649885377,0.1428550892599745,0.4173912586359519
0.0005111433483440171,0.3036410070780977,0.1863608731625521,0.4791013719052948
0.0005672426068491978,0.34636730294451107,0.2322351025873306,0.5187589882536358
0.0006294988990221888,0.38697474801737075,0.27697853764903246,0.5508887961945566
0.0006985879746785249,0.4232600292584734,0.31623743750897926,0.5891448695902834
0.0007752597488629464,0.451767203202271,0.3457138757155466,0.6277904306411175
0.000860346441668451,0.46783427625744695,0.36110125542596394,0.6512511056502689
0.0009547716114208065,0.4709803263137457,0.36297350584861676,0.6544993621904127
0.001059560179277617,0.46248670675875886,0.35395199785587583,0.639837271059729
0.0011758495540521582,0.44404886231103313,0.33595193430997117,0.6113107204811776
0.0013049019780144017,0.4176050744058505,0.3100494511218531,0.5731739406680818
0.001448118227674533,0.38478124407970327,0.27710231812690206,0.5282298514078564
0.0016070528182616384,0.3487172057424118,0.23995573946159976,0.4802275766527622
0.0017834308769319094,0.31142077568705234,0.20159388396639927,0.4311508961723988
0.0019791668678535573,0.2748091914469995,0.16621381449355233,0.3830020544907337
0.002196385372416547,0.23994491705168822,0.1366193860342381,0.3368148352982331
0.002437444150122222,0.2079634975093643,0.11227548299642609,0.29400754910409005
0.002704959730463137,0.17979042565667847,0.09162265916387438,0.2558032905674467
0.0030018358135755923,0.15555556657308006,0.07502834113343662,0.22239252798450684
0.003331294787934677,0.1350955628172836,0.06425464402803104,0.1936127484629073
0.0036969127071950323,0.11788968120715496,0.058426491757869105,0.16899774102143295
0.00410265810582719,0.1035655041111603,0.05394016344103687,0.1484852105889165
0.004552935074866948,0.09155635210166585,0.048450554470207505,0.13155623126242108
0.00505263106533568,0.08140824981936681,0.04253820436949649,0.11754686720060335
0.005607169938205458,0.0726832384603693,0.03732264592357033,0.10570962623701874
0.006222570836730231,0.06527438986275914,0.0331384510028241,0.09577164646777532
0.006905513520162331,0.05906630167768774,0.02979443346386298,0.08750559025986379
0.007663410868007463,0.05380991150412755,0.027063286115467013,0.08061872896325845
0.008504489341802686,0.049172187964077754,0.0247657985838444,0.07473552096645664
0.009437878277775391,0.04495582674695371,0.022759992830080445,0.06958825795125403
0.010473708979594508,0.04112239895846055,0.02093219671862789,0.06502908848862284
0.011623224686798541,0.03760077029378845,0.019165217925644178,0.06083880485159926
0.01289890261253308,0.034357342760235644,0.017388879717669153,0.056822848259027
0.014314589375234785,0.0313426370150792,0.015567871787469314,0.05277308909509208
0.015885651294280528,0.02863209524695181,0.01379400060331913,0.04872843440096689
0.01762914118095948,0.026230624488169898,0.01214500513211794,0.0447723054857988
0.01956398343517065,0.02407507637775785,0.010669248217519162,0.0411988361968818
0.021711179456945052,0.02205547262895379,0.00936963974066801,0.03821206171797778
0.02409403560239527,0.02015963866374178,0.0082132126492228,0.03571535169751538
0.026738416158399492,0.01842581850281746,0.007142945984843632,0.03341169511081429
0.029673024081888724,0.01684867084688517,0.006080254986707766,0.031102533284047176
0.032929712550971546,0.015399072416739502,0.004959210989646067,0.028770516072645545
0.036543830709572546,0.014036673288175372,0.003774543518373114,0.026516719561379316
0.040554607358408275,0.012767012918581698,0.0026269988936627074,0.0245833513499891
0.04500557675700498,0.01157069366309802,0.0016077140169884186,0.022956603677099455
0.0499450511585514,0.010435537560370564,0.0007683980428382993,0.02128907094795103
0.05542664520663107,0.009343124579334141,0.00011341516937751113,0.01928690589384437
0.06150985788580504,0.008324734071098475,-0.0004189958921610102,0.01721840382754443
0.06826071834272393,0.007420725166867592,-0.0008911348688429786,0.015522049410880144
0.0757525025877192,0.006646445444624339,-0.00130199281733996,0.014284094766892758
0.08406652885618333,0.00599590861097289,-0.0016021801561579812,0.013316881108045733
0.09329304026284696,0.005434558258205986,-0.0017863123972415153,0.012441780077716704
0.10353218432956637,0.00492119405848945,-0.001903143145287537,0.01158212935893563
0.11489510001873086,0.004432717692076455,-0.002022662445918256,0.010743728901611339
0.1275051240713013,0.00399043986642558,-0.0022194152366964365,0.01003138692420411
0.1414991297434576,0.0036105012848157906,-0.002505297840290997,0.009498299582036148
0.15702901247293774,0.003295365718527281,-0.002786573564424285,0.009103613754437988
0.17426333860096507,0.003033871583442388,-0.0029550547150293035,0.00876704337889984
0.19338917504552322,0.002815141952165166,-0.003001293602077313,0.00846451507907995
0.21461411978584058,0.002627543306423884,-0.0029725338914598394,0.008188490198073523
0.23816855519761607,0.0024628233487148437,-0.0029368657366381167,0.007922238782075876
0.2643081486974108,0.0023162069761274925,-0.0029576291062582073,0.0076521851625858004
0.29331662783900486,0.0021860846364497883,-0.003047972223827598,0.007435102413238071
0.32550885998350565,0.0020769176093860904,-0.0031686518924637437,0.007391717738427636
0.36123426997094304,0.001989003837103145,-0.0032670685952887637,0.007524767079254271
0.40088063288984643,0.0019217287355109609,-0.003299493763366711,0.007667176271797449
0.4448782831127585,0.0018717389135008674,-0.0032483029097256895,0.007676796717506902
0.4937047852839004,0.0018400810840403128,-0.0031567864796417174,0.007609677851650801
0.5478901179593945,0.0018246393557482617,-0.0030702371016705803,0.00756034707601275
0.6080224261649427,0.0018204336223139642,-0.0029974747803701214,0.0075324049274878785
0.67475440531107,0.0018184442129128065,-0.0029374278201556216,0.007463280514556772
0.748810385759003,0.0018148811357244193,-0.002944607198993537,0.007346995710516706
0.8309941949353403,0.0018097049369149767,-0.003099848197691133,0.007230639528066061
0.9221978823334341,0.0018050469337477315,-0.0033746515097950553,0.007146720080414018
1.0234114021054528,0.0018064265558853916,-0.0036112077568753232,0.007102985315060536
1.135733358343105,0.0018173031236189852,-0.0037000236071464076,0.007079770860818621
1.2603829296797273,0.0018422829856135112,-0.0036697881686328687,0.007054052351976557
1.3987131026472386,0.0018816622828070125,-0.0035718975865678773,0.0070051550087611705
1.552225357427048,0.001935217574034819,-0.0034209687158651353,0.006959024586730618
1.7225859653987874,0.0019996882003448417,-0.00320315165623818,0.006942957738378987
1.9116440753857036,0.002076786989724832,-0.0029273310981728497,0.006972448997880196
2.121451784910632,0.002167495817591649,-0.0026241283029116227,0.00704866057684947
2.35428641432242,0.002272478093928695,-0.002338858915126039,0.007190690609922101
2.612675225563332,0.002387848966887474,-0.0021275981166733273,0.007425438192236115
2.8994228538828812,0.0025051905916434747,-0.002007527380527183,0.007741178128344396
3.2176417502507353,0.0026128637544614477,-0.001953643713670573,0.00807822016984279
3.5707859649004625,0.0027030414796359553,-0.0019366063126366748,0.00837521945122997
3.9626886387014784,0.002784334084204451,-0.0019476909336298568,0.00861966037709983
4.397603609302721,0.0028639668844125843,-0.001989769345086611,0.008819460737837296
4.880251583654434,0.002948138349898015,-0.0020755882924878397,0.009034352172068985
5.415871378079476,0.0030319791536205093,-0.0022087553890530395,0.009308926992773914
6.010276782070388,0.003106051783933964,-0.002364443965561388,0.009634909839512288
6.669919663030129,0.003156490846340488,-0.0024916838768030062,0.009958845369242105
7.401959996915652,0.003186733253345072,-0.0025511920067876593,0.010272924617463455
8.214343584919439,0.003210569573864067,-0.0025241976454660592,0.010599721513145446
9.115888299750837,0.0032133302460043453,-0.002433008205721534,0.010892330532463803
10.11637979766207,0.0031474901448135537,-0.002354372222629308,0.01101812400108675
11.226677735108158,0.00297598142236536,-0.0023445489992277003,0.010868751825142027
12.458833642950081,0.0027181869312524172,-0.0023928211534292856,0.01046812353098355
13.826221737646593,0.0023835839319500812,-0.002408950748684454,0.009732470516745941
15.343684089300131,0.0019357682679461369,-0.0022197938176500747,0.008338277586389064
17.02769172225898,0.0013486273934257913,-0.0016856476893748434,0.00603181481687018
18.896523396912116,0.0007309513774117994,-0.0009567510193589571,0.003337454414292756
20.970464013232306,0.000285184342917621,-0.00038131275146960445,0.0013147721036174248
23.27202478960412,7.66348834965512e-05,-0.0001034052331642863,0.0003547817761457112
25.826187606826746,1.3890982274764697e-05,-1.881439341489201e-05,6.44198853109214e-05
28.66067616948256,1.6831743512737463e-06,-2.283269119133944e-06,7.811309558920285e-06
31.80625692794119,1.3582701478639821e-07,-1.8436848851835134e-07,6.305303703411783e-07
35.297073027306574,7.288488742868079e-09,-9.895745330018468e-09,3.383826351418671e-08
39.17101490809261,2.5990346372434773e-10,-3.5291314548902667e-10,1.2067107842439414e-09
43.47013158125035,6.157437298550075e-12,-8.361301443322332e-12,2.8589031473745063e-11
48.241087041653735,9.690736099493058e-14,-1.3159457392759233e-13,4.499451538642307e-13
53.535666774107185,1.0131280802421924e-15,-1.3757785556181446e-15,4.704013149570283e-15
59.411339849650396,7.035831991529525e-18,-9.55434336162205e-18,3.266782244728959e-17
65.93188271333541,3.245690749737424e-20,-4.407506975838621e-20,1.5069959567454568e-19
73.16807143427206,9.945764913435977e-23,-1.3505922614777633e-22,4.617886232960181e-22
81.19844993184009,2.0244550222898353e-25,-2.749123684312341e-25,9.399683026166315e-25
90.11018251665037,2.7372645329063593e-28,-3.717088911978765e-28,1.2709306732773949e-27
100.0,2.4584649666022773e-31,-3.338491049183896e-31,1.1414821405715907e-30
