tau,gamma,gamma_lo,gamma_hi
1e-07,2.1470121784484094e-05,1.5346773090816235e-06,7.685375270122274e-05
1.1097524964120721e-07,0.00010990673103173074,7.940058418697234e-06,0.00039225477260953817
1.2315506032928263e-07,0.00038020494836074354,2.8161759736600234e-05,0.0013473209468216328
1.3667163564620074e-07,0.0009095877785977225,7.116859728318193e-05,0.0031707190347592847
1.5167168884709241e-07,0.001578731125617477,0.00013716265049265619,0.005314728956884163
1.6831803533309585e-07,0.0021554134174815655,0.00021932946577117793,0.006814715626611547
1.867913599020781e-07,0.00254649501729777,0.0003093253461762156,0.007367325621334554
2.0729217795953698e-07,0.0027928797479133956,0.0003963859258641984,0.007319681913727475
2.300430119772917e-07,0.00294957194956415,0.00047249540187525537,0.007046256260609111
2.5529080682395163e-07,0.0030459235704980315,0.0005336416622541489,0.006766994466044994
2.833096101839324e-07,0.003096059587731685,0.0005856409189625944,0.006566021515422036
3.1440354715915e-07,0.003124298750582421,0.0006462748632187553,0.006456161808784249
3.489101213406774e-07,0.0031423343987767357,0.0007136720063926626,0.006406351822529104
3.872038781812557e-07,0.0031458063000268715,0.0007393742513394504,0.006376123881520772
4.2970047043208437e-07,0.003120925571719143,0.0006748748632509196,0.006325118801255256
4.768611697714474e-07,0.00307890403631002,0.0005614846162278597,0.006265116523517347
5.291978735958437e-07,0.0030447552034267773,0.0004965810601698946,0.006227909731762218
5.872786613189477e-07,0.0030320768488489042,0.0005175183377383318,0.006207656534296798
6.517339604882421e-07,0.003040797019203911,0.0005906579438021221,0.006164462572231656
7.232633896483533e-07,0.0030643090448321023,0.0006760153411733115,0.006090737962181266
8.026433522257174e-07,0.003099431357834353,0.0007490666942524818,0.006047966963252123
8.907354638610439e-07,0.0031434650778470754,0.0007929553122242774,0.0060729678925466974
9.884959046625586e-07,0.0032044730980298115,0.0007981326730138582,0.006142623438622887
1.096985797892384e-06,0.0032853635577328043,0.0007761047369971859,0.006211891859533588
1.217382727739662e-06,0.003384809263076259,0.0007853956410622473,0.006290414770332953
1.3509935211980278e-06,0.003492875210898956,0.0008741189547748662,0.006405022464263595
1.499268432786047e-06,0.003607273733440927,0.0009766514777502697,0.006567057257040683
1.6638168860761274e-06,0.0037302084870266677,0.0009681406446678577,0.006766492626237115
1.8464249428955464e-06,0.00387474111876956,0.0008764161843930123,0.007005218635480916
2.049074689815846e-06,0.004062129332657173,0.0008970137556985008,0.007297604285206742
2.2739657523579273e-06,0.004298419769476055,0.0011297184559092717,0.0076303177338196675
2.523539170434766e-06,0.004570120453148035,0.0014625246636995493,0.007960279413815358
2.800503894183631e-06,0.00485739276857902,0.001756365195787076,0.008259623285841467
3.107866187782014e-06,0.005160860243602521,0.0019795700228578393,0.008589453064085506
3.4489622604057595e-06,0.005485347932407455,0.002165238413228453,0.009018964993080128
3.827494478516315e-06,0.005853106033767264,0.0023765948756028304,0.009576353056816159
4.247571552536894e-06,0.006277206321755508,0.0026597587703981874,0.010234982461172654
4.713753134116729e-06,0.006752182804192333,0.002985202589095222,0.010955178824557411
5.2310993080562585e-06,0.007248581845476123,0.0032734836055720224,0.011672966783746689
5.805225516094895e-06,0.007757417991826429,0.003537312855236008,0.012338793720671199
6.44236350872137e-06,0.008292933260271274,0.003898970357920464,0.012925419372013872
7.149428986597577e-06,0.00885357780915678,0.004420240808825015,0.013437248868156174
7.934096665797492e-06,0.009418564837771688,0.00501295407033641,0.013953219715743113
8.804883581643465e-06,0.009959906952369943,0.00555240467864412,0.014527825217938013
9.771241535346501e-06,0.010501584804795409,0.005991294456727795,0.015181217771760366
1.0843659686896109e-05,0.011063028407340619,0.006329103433013245,0.01588523169904416
1.2033778407775906e-05,0.011656606120399171,0.006629338317432609,0.01664191565997616
1.3354515629298974e-05,0.012266808534422672,0.006969682750149442,0.017439613616230153
1.48202070579886e-05,0.012899887534481236,0.007390531777096804,0.018263299578601844
1.6446761779946626e-05,0.013566663154224253,0.007884693444301039,0.01907567959373792
1.8251834943190462e-05,0.014256792059401705,0.008428659354344687,0.019858140069602292
2.0255019392306664e-05,0.01493990591085059,0.008991580873691805,0.020638267708839766
2.2478058335487252e-05,0.015587291745036857,0.00953166749745168,0.021435259001595985
2.4945081352303165e-05,0.016235068987082085,0.010014285641670425,0.022302698277667
2.7682866303920665e-05,0.016907633943629558,0.010392707289847586,0.023265943810374046
3.072112998861759e-05,0.01764034651349001,0.010668929542464888,0.024378194592596995
3.409285069746814e-05,0.018436287671468467,0.010902831005774355,0.025611748906388693
3.783462617131933e-05,0.019323281427076767,0.011316997104947907,0.026850608607430448
4.1987070844439056e-05,0.020309995521276134,0.012168807319287362,0.027920528414274486
4.659525668664687e-05,0.021391866797975192,0.01341530800365771,0.028898157198287096
5.170920242896755e-05,0.022536225124096435,0.014704724619183594,0.030079872259419393
5.7384416483024044e-05,0.023715565006491367,0.01583562912763968,0.03157277482753783
6.368249944718586e-05,0.02494267411199093,0.01691508556583584,0.03318794884864875
7.067181273927492e-05,0.026210321499649775,0.01804257483425071,0.03470797109633118
7.842822061337681e-05,0.027546439677032367,0.019164993887283863,0.03619837829511491
8.703591361485166e-05,0.02894778957111169,0.02018023187293037,0.037800272553255264
9.658832241158708e-05,0.030478101747888897,0.021195620594290216,0.03973541697317252
0.00010718913192051276,0.032164608386840675,0.022363883244335872,0.04214624708966756
0.00011895340673703195,0.03402660549468494,0.02370652482106794,0.045065496809432976
0.0001320088400831418,0.03600704492353688,0.025047591548886465,0.04830582251499247
0.00014649713983072864,0.038031105904872464,0.026135628488348765,0.05151953735185754
0.0001625755666443795,0.0400181452534141,0.02676815629315299,0.05427928416694333
0.00018041864093920718,0.041978534911825634,0.027209366445618142,0.056666723797553484
0.00020022003718155845,0.04412244464855837,0.028382982674268458,0.05958346093999688
0.0002221946860939524,0.046550779441834625,0.03069327040600843,0.06349636831727293
0.0002465811075822604,0.04920773835172042,0.03316166071423299,0.06769162312692115
0.0002736439997074672,0.0519374656883245,0.03455642106301143,0.07115646105519574
0.00030367711180354605,0.05488187687508164,0.035129725040711046,0.07420094525454918
0.00033700643292719284,0.058246366818750145,0.03606706711994428,0.07775837533413485
0.0003739937302478798,0.06216627300451553,0.03836564842266775,0.08228175078407574
0.0004150404757850477,0.06658377300878086,0.042531899264299525,0.08754012342623375
0.00046059220411451084,0.07138303415586929,0.048326840826346425,0.09320147223940228
0.0005111433483440171,0.07641611011260281,0.05471141611365512,0.09904191150378289
0.0005672426068491978,0.0815899738102563,0.060788610802993186,0.10505380719255421
0.0006294988990221888,0.08704340747203364,0.06627330701397471,0.11166760781982009
0.0006985879746785249,0.09274545378799244,0.07109392590990096,0.11896716787548033
0.0007752597488629464,0.09856228433765052,0.07547056031712254,0.12651757775650369
0.000860346441668451,0.10416461445358673,0.07953803648330691,0.1335805974155721
0.0009547716114208065,0.10965839581844686,0.08351192235337591,0.14040632637928935
0.001059560179277617,0.11518083293683809,0.08744826607108697,0.14753485076548123
0.0011758495540521582,0.1207774592156304,0.09134265335933481,0.15508226179028994
0.0013049019780144017,0.1262638225167871,0.09510475792910554,0.16253713639809825
0.001448118227674533,0.13153443169388082,0.09880923984658829,0.16958558041853503
0.0016070528182616384,0.13677119625653056,0.10280320850458581,0.17652871741902385
0.0017834308769319094,0.14202183221854275,0.10701074719295611,0.18361578782154822
0.0019791668678535573,0.14745838596501654,0.11081215211226872,0.19130085862078586
0.002196385372416547,0.15311220744093354,0.11324508707286646,0.1997944977496887
0.002437444150122222,0.15951712889862055,0.1139632534142818,0.20978695892797555
0.002704959730463137,0.16717945848226645,0.11286067084240858,0.22209331523834447
0.0030018358135755923,0.17684564402730682,0.11055807426507219,0.2385338859011377
0.003331294787934677,0.18968770385876166,0.10806432425401478,0.2620937318112503
0.0036969127071950323,0.20853289356361285,0.10624398005388128,0.2978751135295624
0.00410265810582719,0.23804503793397322,0.10583865489616079,0.35327724054028303
0.004552935074866948,0.2832700024242436,0.10751366024629687,0.4364717043500396
0.00505263106533568,0.35007333988129274,0.11475480590934821,0.5561008123764608
0.005607169938205458,0.4484395382632382,0.14163200727641553,0.7234683178847299
0.006222570836730231,0.5883050268852402,0.21429116757772546,0.9441415222651173
0.006905513520162331,0.750242344750522,0.3336001967512006,1.1830794814713426
0.007663410868007463,0.8490476673864613,0.42587836921919325,1.3225771879841333
0.008504489341802686,0.7869372871013304,0.3986838647626539,1.231170699065767
0.009437878277775391,0.5854097973340114,0.26720956274791074,0.9400543669657281
0.010473708979594508,0.36149368124335224,0.13214304363159074,0.6104766874026785
0.011623224686798541,0.19177874658154329,0.05149883720200534,0.350183416084434
0.01289890261253308,0.08877696106355656,0.016877691857463586,0.18244377294923486
0.014314589375234785,0.03803907882907009,0.004835690931902474,0.09168218325744784
0.015885651294280528,0.017301446776263357,0.001307064277564111,0.048174510653797374
0.01762914118095948,0.009294245183006204,0.00040598316802133275,0.02743859562167709
0.01956398343517065,0.005838121846012754,0.00020176609254084584,0.016817409316989333
0.021711179456945052,0.004118632594755595,0.00020325269406904848,0.011138890865474229
0.02409403560239527,0.0031687576353839567,0.0002522218821803773,0.008075093949559575
0.026738416158399492,0.0025601125355020475,0.00024959496213581715,0.006340599207569886
0.029673024081888724,0.0021084727782131156,0.0001841905839349587,0.005257145606365119
0.032929712550971546,0.0017635787070184848,0.00011297272140963495,0.004510560908377185
0.036543830709572546,0.0015067419110593337,7.210116786956804e-05,0.003958942029972871
0.040554607358408275,0.0013190952789279562,5.431753473096535e-05,0.003545498092799955
0.04500557675700498,0.0011788221343464582,4.4107996217455185e-05,0.0032260046330073286
0.0499450511585514,0.001066244831196193,3.692041653143364e-05,0.0029510634328647994
0.05542664520663107,0.0009680407089502294,3.31896354800802e-05,0.0026895589239890926
0.06150985788580504,0.0008855998510154065,3.113874360682291e-05,0.002469749772427789
0.06826071834272393,0.0008238215549401745,2.8021792095877833e-05,0.002328364271478449
0.0757525025877192,0.0007782994169347129,2.3858459168168898e-05,0.002241879348884319
0.08406652885618333,0.0007378570152716783,2.0595294710464374e-05,0.002148355614756379
0.09329304026284696,0.0006958188198489619,1.8959319693901705e-05,0.002024482477272374
0.10353218432956637,0.0006527481470582877,1.8151533028420037e-05,0.0018945374471532911
0.11489510001873086,0.0006127041447288151,1.742057285924078e-05,0.0017833262518291391
0.1275051240713013,0.00058340079111993,1.6726500701153477e-05,0.0017047555613986134
0.1414991297434576,0.0005675918668084555,1.640396808383414e-05,0.001656727287403978
0.15702901247293774,0.0005601631981081753,1.706024460280651e-05,0.0016257087147319275
0.17426333860096507,0.0005541298720093712,1.9428821469418084e-05,0.0015982869204336375
0.19338917504552322,0.0005490864326650825,2.411487320183243e-05,0.0015801567972983457
0.21461411978584058,0.0005464871273246408,3.088269067492921e-05,0.0015813570941886886
0.23816855519761607,0.0005445429386659839,3.73094815584745e-05,0.0015987702289448403
0.2643081486974108,0.000538026688490586,3.960247527234241e-05,0.001614981620676009
0.29331662783900486,0.0005238065335090781,3.654058145436497e-05,0.0016124087574206755
0.32550885998350565,0.0005026725067764226,2.995000105962724e-05,0.001578475969034574
0.36123426997094304,0.00047778396059708746,2.2061649467080096e-05,0.0015130465844905379
0.40088063288984643,0.0004561359894388716,1.4937282586196779e-05,0.0014377374335985795
0.4448782831127585,0.0004425504961616484,1.0201692922324565e-05,0.0013729527605814537
0.4937047852839004,0.0004377374825435897,8.957251708853121e-06,0.0013311269384473892
0.5478901179593945,0.00043943546393390975,1.1331713403617358e-05,0.0013126430101448225
0.6080224261649427,0.0004450272448166899,1.5238376842693298e-05,0.0013057853697466951
0.67475440531107,0.0004514550368785593,1.7791795609913352e-05,0.0012950825796923416
0.748810385759003,0.0004571840693573327,1.8254186594676686e-05,0.0012829599162150409
0.8309941949353403,0.0004611571043957842,1.7640523252005337e-05,0.001285050272282814
0.9221978823334341,0.0004620288709272853,1.664369376314901e-05,0.0013077830623309354
1.0234114021054528,0.0004587432477762153,1.523102459570949e-05,0.0013428815928326308
1.135733358343105,0.00045220108932070876,1.3586301953332326e-05,0.0013741808247117518
1.2603829296797273,0.00044783836499265734,1.2687702228917485e-05,0.001385387026330481
1.3987131026472386,0.0004493699448577355,1.3214513161348903e-05,0.0013708182682542211
1.552225357427048,0.0004559472494712336,1.461265425884158e-05,0.001354471730608741
1.7225859653987874,0.0004643334675630786,1.6037066156236e-05,0.0013632550943242995
1.9116440753857036,0.0004740993248519471,1.7597141460006253e-05,0.0013990475854179553
2.121451784910632,0.0004851495992063818,1.974288777673827e-05,0.0014410548147887744
2.35428641432242,0.0004946686105415277,2.186901412370833e-05,0.0014638723767892376
2.612675225563332,0.0004976457765388897,2.2546608581737096e-05,0.0014459553838744184
2.8994228538828812,0.0004941350186937338,2.1797718661749293e-05,0.0013956368538234035
3.2176417502507353,0.0004916495389854089,2.155493431874991e-05,0.0013586332030429663
3.5707859649004625,0.0004952328372638035,2.2776819573980795e-05,0.0013679070803337566
3.9626886387014784,0.0005039097122065423,2.3947150222592842e-05,0.0014208137179681488
4.397603609302721,0.0005139598585130836,2.3421363466035554e-05,0.0014956201999354478
4.880251583654434,0.0005244509925967208,2.185584106719825e-05,0.0015685028042387815
5.415871378079476,0.0005360183467099983,2.1038324382298563e-05,0.0016180365673783559
6.010276782070388,0.0005521616067271201,2.2132286610370478e-05,0.0016438915915719284
6.669919663030129,0.0005764491728920023,2.5384641452380998e-05,0.0016592530658153457
7.401959996915652,0.0006085244803332514,2.9828008629077704e-05,0.0016837754220110639
8.214343584919439,0.0006431783101409192,3.354667012695214e-05,0.0017371150066080243
9.115888299750837,0.0006743603529700863,3.5586276158431613e-05,0.001817508307675607
10.11637979766207,0.0006968304296533606,3.6462298479611704e-05,0.0018983672899760854
11.226677735108158,0.0007058587397623243,3.6540485397652064e-05,0.001957804404177456
12.458833642950081,0.0006985626515466678,3.522683736261913e-05,0.001996165706606807
13.826221737646593,0.0006630172130040066,3.155255050323655e-05,0.001979068899201587
15.343684089300131,0.0005751954832712662,2.5362819964619693e-05,0.0017962434614159758
17.02769172225898,0.0004188169778799142,1.7331007739926864e-05,0.0013507250187537625
18.896523396912116,0.0002324424102537167,9.262804105067886e-06,0.0007628350885039511
20.970464013232306,9.169054343388413e-05,3.587726756687082e-06,0.000303346690439559
23.27202478960412,2.4755681074755156e-05,9.60944402879698e-07,8.218423521899088e-05
25.826187606826746,4.496055950996381e-06,1.7394161073035678e-07,1.4947426465498333e-05
28.66067616948256,5.452247434500438e-07,2.106453668354358e-08,1.8136942295910613e-06
31.80625692794119,4.401228539747954e-08,1.6994483500616178e-09,1.4644196789810442e-07
35.297073027306574,2.362014407991844e-09,9.118392992588846e-11,7.859881187294586e-09
39.17101490809261,8.423262317579108e-11,3.25144396459261e-12,2.8030490299258753e-10
43.47013158125035,1.9956190922463072e-12,7.702957075071717e-14,6.641021293638741e-12
48.241087041653735,3.1407850963939985e-14,1.2123039591614465e-15,1.0451971535065455e-13
53.535666774107185,3.2835780676006876e-16,1.2674125608828084e-17,1.0927189278983116e-15
59.411339849650396,2.280337225056783e-18,8.801742697828421e-20,7.588582345657e-18
65.93188271333541,1.051940089410359e-20,4.060319094171014e-22,3.500682830861194e-20
73.16807143427206,3.223459071494855e-23,1.2442027137686557e-24,1.0727141094457116e-22
81.19844993184009,6.561333978636119e-26,2.5325676637342967e-27,2.1835040768035675e-25
90.11018251665037,8.871576439974341e-29,3.424283264241062e-30,2.952314869416599e-28
100.0,7.967976771616606e-32,3.0755085033740946e-33,2.6516117770659375e-31
