tau,gamma,gamma_lo,gamma_hi
1e-07,1.0364066931806561e-05,-7.153312804753477e-05,9.0984649736309e-05
1.1097524964120721e-07,5.3076727462640275e-05,-0.00036541967258205474,0.0004656461850838764
1.2315506032928263e-07,0.00018380095870902495,-0.0012578073507388296,0.0016099111038692844
1.3667163564620074e-07,0.00044081788212076205,-0.002974678690449355,0.0038462696596180328
1.5167168884709241e-07,0.000769582559866146,-0.005039279819440508,0.006655249428653839
1.6831803533309585e-07,0.0010642574798054737,-0.006589408089332102,0.009027617274313659
1.867913599020781e-07,0.0012897459968633865,-0.0073303711775444275,0.010536141668185315
2.0729217795953698e-07,0.001475670752460176,-0.007519391682205058,0.011329142898120854
2.300430119772917e-07,0.0016443947821865753,-0.007434832215155435,0.011669714203214419
2.5529080682395163e-07,0.001785445205990417,-0.007224095707195317,0.011782690049275724
2.833096101839324e-07,0.0018815338209358765,-0.006965228459225967,0.011793062636554079
3.1440354715915e-07,0.0019308052026806714,-0.006763791220531642,0.01177201781554829
3.489101213406774e-07,0.0019299855265590517,-0.0066815570966708895,0.011706432270335559
3.872038781812557e-07,0.0018744091045986688,-0.006684383355669946,0.011532459142017264
4.2970047043208437e-07,0.0017551009479296878,-0.006689021686078971,0.011183725076756112
4.768611697714474e-07,0.0015778371018057475,-0.0066733769991068415,0.010754156410014254
5.291978735958437e-07,0.0013598250870638432,-0.006680556484556061,0.010415989802720054
5.872786613189477e-07,0.0011206862923295287,-0.006819837389789092,0.01019817738462936
6.517339604882421e-07,0.0008844159449279783,-0.0072214901166907704,0.009977721859975894
7.232633896483533e-07,0.0006590891971635282,-0.007841228203123907,0.009637572270178656
8.026433522257174e-07,0.0004388789567298377,-0.008398236489757486,0.009166735427273445
8.907354638610439e-07,0.00021383757512527318,-0.008659843761620292,0.008626198377216341
9.884959046625586e-07,-1.826815216640413e-05,-0.008667646578562725,0.008182042838288538
1.096985797892384e-06,-0.00025532861993116053,-0.008567334367454299,0.007927926058756432
1.217382727739662e-06,-0.000493201483928335,-0.008517375080154722,0.00773191506646893
1.3509935211980278e-06,-0.0007229381961571777,-0.008616076697675203,0.007382285396523844
1.499268432786047e-06,-0.0009353225264235384,-0.008833985410149193,0.006901642419395027
1.6638168860761274e-06,-0.0011168116647950646,-0.009049650305305534,0.006491578782362215
1.8464249428955464e-06,-0.001262443728698526,-0.009203628584952049,0.006240635443034518
2.049074689815846e-06,-0.0013734458877788683,-0.009333385438310558,0.006090924674578477
2.2739657523579273e-06,-0.0014500888976177167,-0.009508992708479646,0.005998767423612524
2.523539170434766e-06,-0.0014895502577505887,-0.009806715819884545,0.0060222852240938655
2.800503894183631e-06,-0.0014764934552419058,-0.010165386927979903,0.006208312266146089
3.107866187782014e-06,-0.0013890876319370142,-0.010316910584936043,0.006517264441511255
3.4489622604057595e-06,-0.0012172004117604763,-0.010014968137686805,0.0068571899660321
3.827494478516315e-06,-0.0010058482879343389,-0.00943433038605043,0.007161724276415799
4.247571552536894e-06,-0.0008163969029988211,-0.008942666165784601,0.007395601115299239
4.713753134116729e-06,-0.0006444863176475638,-0.008657538320132946,0.007620601580381745
5.2310993080562585e-06,-0.00043519726871965977,-0.008449560002585592,0.007948660071497011
5.805225516094895e-06,-0.00016583227873617968,-0.00818995432536316,0.008395669188452786
6.44236350872137e-06,0.00012957235207296545,-0.007842038787349364,0.008852380725104343
7.149428986597577e-06,0.00042606329234467583,-0.007401625137555582,0.009214700479170255
7.934096665797492e-06,0.0007298293303935013,-0.006909601424849762,0.009465118602600093
8.804883581643465e-06,0.0010365373106202749,-0.0064318945670123065,0.009586386797860585
9.771241535346501e-06,0.0012934120376860226,-0.006100145693097159,0.009558320413070007
1.0843659686896109e-05,0.001438520538942384,-0.0060226057273717465,0.00938183104347366
1.2033778407775906e-05,0.0014837356611567766,-0.006158643984402277,0.009211648903985275
1.3354515629298974e-05,0.0014826497184221516,-0.006359990344935418,0.00925471683259785
1.48202070579886e-05,0.0014655440230826168,-0.006506238932481747,0.009530322856793184
1.6446761779946626e-05,0.0014293556233164462,-0.00653135046506602,0.009859750127336482
1.8251834943190462e-05,0.0013560625659609323,-0.006462768025963025,0.010055056039159805
2.0255019392306664e-05,0.0012291379247989075,-0.006433376725760951,0.010001148910607728
2.2478058335487252e-05,0.0010509286150075195,-0.006530499752408413,0.009689011848879962
2.4945081352303165e-05,0.0008631706233457023,-0.006735503241024177,0.009295831820964268
2.7682866303920665e-05,0.0006984616084327171,-0.006989020122843098,0.008984804940993135
3.072112998861759e-05,0.0005397695012395012,-0.0072832148858890736,0.008785347554284667
3.409285069746814e-05,0.00035112891734319937,-0.00764352827830135,0.008650239408566435
3.783462617131933e-05,0.00012955996065764586,-0.008134402836269865,0.008586498045593981
4.1987070844439056e-05,-9.842255304015908e-05,-0.0088015430108391,0.008636245721424712
4.659525668664687e-05,-0.00031475184970153846,-0.009578543602129529,0.008795463429300751
5.170920242896755e-05,-0.0005121452599942491,-0.010278728102705297,0.009005955023085379
5.7384416483024044e-05,-0.0006924320755913528,-0.01078132857409663,0.009224821050228356
6.368249944718586e-05,-0.0008607320616891368,-0.011118393063046784,0.00945993914288524
7.067181273927492e-05,-0.0010171666801513848,-0.011391389409753924,0.009699228854979943
7.842822061337681e-05,-0.0011556140476750216,-0.01178170852419304,0.009905895001183473
8.703591361485166e-05,-0.0012752786714126342,-0.012422712788952815,0.010052527629622346
9.658832241158708e-05,-0.0014030344632557311,-0.013318190221095774,0.010240845759310007
0.00010718913192051276,-0.0015639581762605834,-0.01439594474911587,0.010635069282175802
0.00011895340673703195,-0.0017342554303805986,-0.0156758569915723,0.011390976541285866
0.0001320088400831418,-0.0018424126979826976,-0.017236147340686268,0.012664045193532295
0.00014649713983072864,-0.0018240154399114727,-0.019149483358121715,0.01465371031294599
0.0001625755666443795,-0.0016205628583782746,-0.021456904431403964,0.017605501209929694
0.00018041864093920718,-0.0011447058131344278,-0.024265264648288383,0.021767964637848553
0.00020022003718155845,-0.0002592781955099047,-0.027886086658208038,0.02743347361919839
0.0002221946860939524,0.0012659464595420474,-0.03303299877863245,0.03541213504319344
0.0002465811075822604,0.003849304543842699,-0.040938816995934345,0.047590690408128786
0.0002736439997074672,0.008498604696065275,-0.05227362626989581,0.0670851112549931
0.00030367711180354605,0.017427783790814864,-0.06544431624786932,0.09835189370449177
0.00033700643292719284,0.034469183853908125,-0.07687725177160011,0.1470177472971187
0.0003739937302478798,0.0649858758781931,-0.0825322329145869,0.2184085719602535
0.0004150404757850477,0.1150453453002581,-0.07629308468937901,0.3163151065733741
0.00046059220411451084,0.1875536591634763,-0.04848775554656479,0.44154999647133625
0.0005111433483440171,0.27922921604798917,0.01237008957658432,0.5880250703045513
0.0005672426068491978,0.38306901500090806,0.10738820645314384,0.7450990915065624
0.0006294988990221888,0.48637686604970926,0.21644436828660776,0.8947853649596951
0.0006985879746785249,0.5754511130388867,0.31563769669136893,1.0170577138798866
0.0007752597488629464,0.6414104494421098,0.39081121965569304,1.098890590441493
0.000860346441668451,0.6774089358088593,0.43445512889304044,1.129146834347033
0.0009547716114208065,0.6850823837588648,0.4497662105419569,1.1087815114967978
0.001059560179277617,0.6698439265009677,0.44405782552641515,1.0461578707154942
0.0011758495540521582,0.6387904454756372,0.4230897642649758,0.959019415221354
0.0013049019780144017,0.6001259839241033,0.39064348579117003,0.872956059703763
0.001448118227674533,0.558560185752174,0.34913236070877024,0.8001418473156288
0.0016070528182616384,0.5170646035650079,0.30277313651693355,0.7382174677679427
0.0017834308769319094,0.47705130038413834,0.2561509701058119,0.6820119437909591
0.0019791668678535573,0.4416211421523957,0.21602404596325883,0.6340861397067867
0.002196385372416547,0.4129297286483719,0.18706601523444064,0.59796844801837
0.002437444150122222,0.39156095805203595,0.16797947866559032,0.5737397760577587
0.002704959730463137,0.37697535696420204,0.15553105693559605,0.5589511763828061
0.0030018358135755923,0.36914499339484774,0.15007992316893326,0.5524666264382969
0.003331294787934677,0.3684447102389509,0.154401000532151,0.5543565199899224
0.0036969127071950323,0.37484968143748915,0.1676198328671832,0.565103804140848
0.00410265810582719,0.38798197965983294,0.18483223448080752,0.5856813044330141
0.004552935074866948,0.4077226195987439,0.20412632461235217,0.6178036890446436
0.00505263106533568,0.43464398817387573,0.22892697332161047,0.663846223586275
0.005607169938205458,0.4682708826390212,0.2620809507126258,0.7217090886349268
0.006222570836730231,0.506612845048316,0.30158833120230116,0.7824341087221932
0.006905513520162331,0.5459964596302569,0.3424816983407381,0.8373525846965012
0.007663410868007463,0.583482146012858,0.3801081595033186,0.8911099461035816
0.008504489341802686,0.6148821179091726,0.4092162032061799,0.9500719242510623
0.009437878277775391,0.6368161437225189,0.4265609642387834,1.0074161529587524
0.010473708979594508,0.6449489225172738,0.42871673144636774,1.0436625769845291
0.011623224686798541,0.6354374263070318,0.4114899502787486,1.0480297527587692
0.01289890261253308,0.6052775679945137,0.3700315098440736,1.0213174849713802
0.014314589375234785,0.550980909461231,0.30017104528464006,0.9600392218466655
0.015885651294280528,0.4727876392305991,0.2045535322190136,0.856311294999688
0.01762914118095948,0.3752502948873278,0.0950265489056808,0.709791470406848
0.01956398343517065,0.2747967446904718,0.000465117174066751,0.5496058806246921
0.021711179456945052,0.1890803355905228,-0.05199503836998056,0.4099735815137225
0.02409403560239527,0.1236513805331331,-0.0664842369750136,0.30097345447825274
0.026738416158399492,0.07681301595945501,-0.0644279293916378,0.21750638073950976
0.029673024081888724,0.044972346939589104,-0.05849237425719214,0.15320857340019425
0.032929712550971546,0.025185977493114575,-0.0504589519216108,0.10548483998449577
0.036543830709572546,0.0142993565221195,-0.0405236113765987,0.0720381809453443
0.040554607358408275,0.008528898144761134,-0.031386489922537335,0.04993439188882838
0.04500557675700498,0.00512088736092391,-0.025102907743866115,0.03616224684427529
0.0499450511585514,0.002914664174983175,-0.021350696513936066,0.02769543661678198
0.05542664520663107,0.0015429631462000818,-0.018988056093000458,0.022223759135298234
0.06150985788580504,0.0007344432173172936,-0.017328307994066535,0.018493479345678028
0.06826071834272393,0.0002402514421158645,-0.01608685400930514,0.01588577792614174
0.0757525025877192,-0.0001007967364699294,-0.015122656243045322,0.013948802352912076
0.08406652885618333,-0.00036568366713740055,-0.014325647320422309,0.012337483514112707
0.09329304026284696,-0.0005702589289115096,-0.013614775960247015,0.010997888910723336
0.10353218432956637,-0.0006956427216104834,-0.012950694158096484,0.010126709616215281
0.11489510001873086,-0.0007523580198919252,-0.012329992439477076,0.009739342984273282
0.1275051240713013,-0.0008014212112456603,-0.011812626896802755,0.009550139706648465
0.1414991297434576,-0.0008910186188558425,-0.011405115898803332,0.009278095338614326
0.15702901247293774,-0.0010193605500428678,-0.011045128231292936,0.008868087170961403
0.17426333860096507,-0.0011605978828813862,-0.010660269295505035,0.00835941117731747
0.19338917504552322,-0.0012916675623253905,-0.010299384147912658,0.00783319275228194
0.21461411978584058,-0.0013961927891137109,-0.010058341758160208,0.007375817244234928
0.23816855519761607,-0.0014809619610719827,-0.009996557769274841,0.007079656352693477
0.2643081486974108,-0.001563172027534017,-0.010112086834076208,0.007015532682930822
0.29331662783900486,-0.00164939669507987,-0.010326561501159378,0.007121875931420921
0.32550885998350565,-0.0017328619421379437,-0.01050872147606523,0.007207185120407794
0.36123426997094304,-0.0018111197332310344,-0.010608809294600768,0.007124060674386783
0.40088063288984643,-0.0018948568677503907,-0.010723762945822585,0.006856631389722807
0.4448782831127585,-0.0019860590296994327,-0.01090631404709309,0.006441995971420016
0.4937047852839004,-0.0020692467554393346,-0.01107973884939816,0.005977946579836954
0.5478901179593945,-0.002122342250079519,-0.011123631940855016,0.005562697178878218
0.6080224261649427,-0.002145537843833645,-0.011055978191611512,0.005274286405594233
0.67475440531107,-0.0021463103678768954,-0.01093836660681779,0.005156282968612269
0.748810385759003,-0.002128215673707006,-0.010764016507555147,0.005180283356564418
0.8309941949353403,-0.0020896507045777006,-0.01048108479963354,0.005260924195128142
0.9221978823334341,-0.0020353218960485102,-0.010156025194596243,0.005325155498679009
1.0234114021054528,-0.001978014236852036,-0.00999944915988086,0.0053403095624816425
1.135733358343105,-0.0019080996302920776,-0.010066552252739468,0.005338933185052694
1.2603829296797273,-0.0017887460480439535,-0.01014729840006899,0.005443210267030874
1.3987131026472386,-0.0015912393800169937,-0.010025222135556266,0.0057255479905814885
1.552225357427048,-0.0013427058243280416,-0.009746623165152365,0.006111659261827123
1.7225859653987874,-0.0010877205282957291,-0.009449163135223006,0.00647923869183573
1.9116440753857036,-0.0008499246288386533,-0.009209099559228495,0.006821326394284587
2.121451784910632,-0.0006358522483574312,-0.009022045167903671,0.007179904961677585
2.35428641432242,-0.00044086256878979807,-0.008842827013801222,0.007534319785308103
2.612675225563332,-0.0002587248878762467,-0.008612604916783503,0.007795004769256025
2.8994228538828812,-8.388190660605956e-05,-0.008312094741672554,0.007936881269673245
3.2176417502507353,8.350689798267395e-05,-0.007994018344788278,0.00803867976367204
3.5707859649004625,0.00024161123531562316,-0.007705882356179726,0.008148470051515514
3.9626886387014784,0.00038691731506325686,-0.007484843102273971,0.008247491923312577
4.397603609302721,0.0005182491845465331,-0.007321903003492342,0.008315037877309478
4.880251583654434,0.0006428402944732972,-0.007169782111968365,0.008443478599021096
5.415871378079476,0.0007654179853649357,-0.006987189782718906,0.008742335708250303
6.010276782070388,0.0008783235753231689,-0.0068492197748095725,0.00922170612223821
6.669919663030129,0.0009613985516747326,-0.006881368769242771,0.00977786871653658
7.401959996915652,0.0010008763730766457,-0.0070818202596848,0.010256207565561368
8.214343584919439,0.0009938407965924617,-0.007314685453290498,0.010486984087142291
9.115888299750837,0.0009565220609536608,-0.007477471256461637,0.010464204225562617
10.11637979766207,0.000927530432238162,-0.007566306268427666,0.010425047070341904
11.226677735108158,0.0009236549791243127,-0.0075880379841069805,0.010578531516541012
12.458833642950081,0.0009142078917234732,-0.007517994735952856,0.010932712474724065
13.826221737646593,0.0008515963894807279,-0.007198970653078953,0.011136318741471892
15.343684089300131,0.0007123875364750755,-0.006315187134172228,0.010369238537794959
17.02769172225898,0.0005018601437612357,-0.004637254724920917,0.007928372479048054
18.896523396912116,0.00027303009824694075,-0.002585785111229277,0.004516080971332349
20.970464013232306,0.00010666256542355297,-0.0010222486239658997,0.0018027817956315915
23.27202478960412,2.867615959994404e-05,-0.0002762600810907559,0.0004892163156126798
25.826187606826746,5.198858482726072e-06,-5.019330116367681e-05,8.903710456751926e-05
28.66067616948256,6.299935651211133e-07,-6.087787271730592e-06,1.0806569277740668e-05
31.80625692794119,5.084005350195554e-08,-4.914577946575271e-07,8.726452087330359e-07
35.297073027306574,2.728113957276296e-09,-2.6375843790523254e-08,4.6839013513372085e-08
39.17101490809261,9.728349843463458e-11,-9.40608303264665e-10,1.6704381207043635e-09
43.47013158125035,2.304771936034362e-12,-2.2284763037683844e-11,3.957653651060787e-11
48.241087041653735,3.6273133014653884e-14,-3.5072712545876083e-13,6.22877195969553e-13
53.535666774107185,3.7922136117676834e-16,-3.666728800809674e-15,6.511982210524753e-15
59.411339849650396,2.6335644836231806e-18,-2.5464235710553337e-17,4.522364921686078e-17
65.93188271333541,1.214886361768675e-20,-1.1746882531566812e-19,2.08620894647328e-19
73.16807143427206,3.7227743916560915e-23,-3.5995963294148047e-22,6.392769811367373e-22
81.19844993184009,7.577687029784093e-26,-7.326959527971013e-25,1.3012450639383549e-24
90.11018251665037,1.0245786540876364e-28,-9.906778444658536e-28,1.759412882448891e-27
100.0,9.202218857021093e-32,-8.897740025101e-31,1.5802108348995285e-30
