tau,gamma,gamma_lo,gamma_hi
1e-07,5.473308540387315e-06,-3.4859521781864114e-05,5.374913081247611e-05
1.1097524964120721e-07,2.8070972334736612e-05,-0.00017780413897980238,0.00027482930276329423
1.2315506032928263e-07,9.754198069500565e-05,-0.0006097835749350381,0.0009481125092632074
1.3667163564620074e-07,0.00023570813677146517,-0.0014301359527164018,0.0022538326037802557
1.5167168884709241e-07,0.00041734245740502604,-0.0023817379253611762,0.003859292701689971
1.6831803533309585e-07,0.0005878993046334927,-0.0030304424345955093,0.005140509237716487
1.867913599020781e-07,0.0007185373078432409,-0.0032872746930797145,0.0058548773750990565
2.0729217795953698e-07,0.0008070510862431086,-0.0033798187329043277,0.006140768793181569
2.300430119772917e-07,0.0008653283682051905,-0.003451084317546524,0.00620380883714992
2.5529080682395163e-07,0.0009117723092165156,-0.0034487281925306354,0.006207992617982404
2.833096101839324e-07,0.0009524713102260738,-0.0033132398235710342,0.006199072487130926
3.1440354715915e-07,0.0009758225296591056,-0.0031150595235683136,0.00610964202401879
3.489101213406774e-07,0.0009694972047971348,-0.002947101848100522,0.005875517387236124
3.872038781812557e-07,0.000944828755387357,-0.0028404083145109975,0.005587486465962197
4.2970047043208437e-07,0.0009208153196280475,-0.0027767170318651496,0.005372773849216567
4.768611697714474e-07,0.0009054734373756267,-0.002723411836312877,0.005235669410247649
5.291978735958437e-07,0.0008952456120591934,-0.002649530546823389,0.005091826233236875
5.872786613189477e-07,0.0008822275522426322,-0.0025586381674323165,0.004914547018720747
6.517339604882421e-07,0.0008584904195095282,-0.0024890831723506928,0.004753509592496499
7.232633896483533e-07,0.0008234503501380028,-0.0024687247581135522,0.004628807118004772
8.026433522257174e-07,0.0007885589417859244,-0.002505304068438595,0.004511011585141363
8.907354638610439e-07,0.0007617776114841026,-0.002592717687765819,0.004386961714185748
9.884959046625586e-07,0.000741510585626465,-0.0027205343618604766,0.004323280649871975
1.096985797892384e-06,0.0007199554659897165,-0.0028732853332497236,0.004362625679786892
1.217382727739662e-06,0.0006908294767859635,-0.003038808185131243,0.004426920813134708
1.3509935211980278e-06,0.0006503719427716338,-0.0031959676706310902,0.004398238779561649
1.499268432786047e-06,0.0006035140092287615,-0.003318457885160604,0.004305604700004208
1.6638168860761274e-06,0.000560541649417861,-0.003369812076154012,0.004276723209668954
1.8464249428955464e-06,0.0005250200473953835,-0.0033296086587030435,0.004334923540282315
2.049074689815846e-06,0.0004931650158673029,-0.0032057421553473263,0.004371905695985445
2.2739657523579273e-06,0.0004591485691136373,-0.003038846487542467,0.0043041952299008234
2.523539170434766e-06,0.0004193103752384801,-0.002920197133554016,0.004155634281701392
2.800503894183631e-06,0.0003700785441349364,-0.0029136482963950166,0.003970421816132025
3.107866187782014e-06,0.0003098334997643068,-0.003007239019541962,0.003780730602370976
3.4489622604057595e-06,0.00023852018309030785,-0.003150065383179755,0.0036048977635640207
3.827494478516315e-06,0.000161204501225686,-0.003300989154762559,0.003473100507491221
4.247571552536894e-06,8.527822670319266e-05,-0.0034269411155456943,0.0034040776291943764
4.713753134116729e-06,1.3035536403856887e-05,-0.0035191451945846986,0.0033581973554172345
5.2310993080562585e-06,-5.621106183399498e-05,-0.003581192209847789,0.0032580911832248973
5.805225516094895e-06,-0.00012298633468013718,-0.0036173395739253294,0.003093080079208672
6.44236350872137e-06,-0.00018488753733491672,-0.0036362553590166126,0.002945389690277854
7.149428986597577e-06,-0.00023934865360621246,-0.003656397649692222,0.002875827401016532
7.934096665797492e-06,-0.0002844449521178937,-0.0037168637330265825,0.0028766276882514472
8.804883581643465e-06,-0.0003177037233068336,-0.0038133737580463814,0.002903913855943003
9.771241535346501e-06,-0.00033770197008722565,-0.0038600257599158733,0.002915400765288723
1.0843659686896109e-05,-0.00034501478266975186,-0.0037719156513627322,0.0028866517272224217
1.2033778407775906e-05,-0.000348490746825196,-0.0036227532109686105,0.002852894488538583
1.3354515629298974e-05,-0.00035963385760575626,-0.00356808971996602,0.002866277546035126
1.48202070579886e-05,-0.00038009508624897123,-0.0036498113805468386,0.0029101512799618048
1.6446761779946626e-05,-0.00040109382090602836,-0.0037863935548905557,0.002908280137352549
1.8251834943190462e-05,-0.0004135235161412787,-0.0038972009203590433,0.0028383886130022825
2.0255019392306664e-05,-0.00041221284601998705,-0.003947765807395523,0.0027715678887487746
2.2478058335487252e-05,-0.00039773798789335886,-0.003929529643713834,0.002770874785483461
2.4945081352303165e-05,-0.00038007810024232144,-0.003866354482430546,0.002842214551928286
2.7682866303920665e-05,-0.000367572693633364,-0.0037824446741131423,0.0029536518317869495
3.072112998861759e-05,-0.00035944687949662394,-0.0037061030028950202,0.0030619064380986855
3.409285069746814e-05,-0.00035212019683588893,-0.003659175348319882,0.003123936380273039
3.783462617131933e-05,-0.0003508148497720966,-0.0036595250670009064,0.003137204270472418
4.1987070844439056e-05,-0.0003646499435272259,-0.0037145157093970167,0.003124029972328995
4.659525668664687e-05,-0.00038987557962779523,-0.003809682285155437,0.0031087572924367534
5.170920242896755e-05,-0.0004102109046518049,-0.0039117058155587695,0.003111793625570412
5.7384416483024044e-05,-0.0004202605842474696,-0.004001253681643873,0.003136387055882709
6.368249944718586e-05,-0.00043453616506971513,-0.004088679979745655,0.0031702701330932675
7.067181273927492e-05,-0.00046683368949735276,-0.004175305544394247,0.0031883619809010425
7.842822061337681e-05,-0.0005171674022812227,-0.004247266705015094,0.0031685629332206585
8.703591361485166e-05,-0.0005769872120038892,-0.004291222255017184,0.0030975372287108927
9.658832241158708e-05,-0.0006360867732559219,-0.004343435747083977,0.003004603516127967
0.00010718913192051276,-0.0006851966460904611,-0.004446619851237738,0.002928887744913249
0.00011895340673703195,-0.0007260942167560318,-0.004593562122324679,0.0028775354054415628
0.0001320088400831418,-0.0007668049056312686,-0.0047352969021867315,0.002831083855035728
0.00014649713983072864,-0.0008114882064978176,-0.004857212852629118,0.0027817201516413754
0.0001625755666443795,-0.0008578399265886034,-0.004989473148747711,0.0027469327355758295
0.00018041864093920718,-0.0009014434368277753,-0.00514237397191519,0.0027486333162173478
0.00020022003718155845,-0.000938628877540871,-0.005285849799221629,0.00280922304898009
0.0002221946860939524,-0.0009627655992714324,-0.0053692688981267535,0.002927292901308687
0.0002465811075822604,-0.000966443862079907,-0.00536607736419908,0.003066063809558474
0.0002736439997074672,-0.0009429476160995501,-0.005265481671820626,0.0031805439038720827
0.00030367711180354605,-0.0008989523640407743,-0.00511341001056368,0.003270798109091481
0.00033700643292719284,-0.0008474587764983604,-0.00497581984673874,0.00335263524563161
0.0003739937302478798,-0.0007981225549694533,-0.0048903816215655,0.003422262990097057
0.0004150404757850477,-0.000755423254726124,-0.004862041453897135,0.003465123515365582
0.00046059220411451084,-0.0007145409273824749,-0.004868467867514978,0.003521203690230262
0.0005111433483440171,-0.0006645205216628494,-0.004878598236571579,0.003692938952216681
0.0005672426068491978,-0.000600595245506875,-0.004894496771540267,0.004011796930676708
0.0006294988990221888,-0.0005347920870074971,-0.0049849363245309045,0.004371241266234749
0.0006985879746785249,-0.00048031576753287475,-0.00518631907028855,0.004652592333544345
0.0007752597488629464,-0.0004420778113778182,-0.005434237067574533,0.004854340899390115
0.000860346441668451,-0.0004207350061539043,-0.005637176953589986,0.005020722316836468
0.0009547716114208065,-0.00041834112801102395,-0.005824850227584871,0.0051837191051028
0.001059560179277617,-0.0004363409402457561,-0.006099072979214003,0.005353765086719661
0.0011758495540521582,-0.0004673915687213704,-0.006519403257087377,0.005557863146690242
0.0013049019780144017,-0.0004964273519038751,-0.007074112416959356,0.005832663219826601
0.001448118227674533,-0.000517322358797828,-0.007707153780458121,0.006173101276692704
0.0016070528182616384,-0.0005374774759686783,-0.008337581812536864,0.0065311635785825885
0.0017834308769319094,-0.0005628181203617289,-0.008947684781574292,0.006909408689168463
0.0019791668678535573,-0.0005900155579767638,-0.009667387972187642,0.007444589595491294
0.002196385372416547,-0.0006091492183851069,-0.010669143875279985,0.008302397174419834
0.002437444150122222,-0.0006091825216862896,-0.01214933506093006,0.009647769617994852
0.002704959730463137,-0.0005742344521607422,-0.01448825808866969,0.011901490783497705
0.0030018358135755923,-0.0004690798515982984,-0.01859798872123353,0.016247757277705804
0.003331294787934677,-0.00015165950936538993,-0.02609743266128873,0.024860219536351553
0.0036969127071950323,0.0007824146955732341,-0.03947321428462921,0.040965506531797154
0.00410265810582719,0.0029614155312594707,-0.06307791827071585,0.0698386265430771
0.004552935074866948,0.007208322539473495,-0.10494121415397645,0.12092622574593617
0.00505263106533568,0.017923345278377648,-0.1767123722610801,0.21176516022309155
0.005607169938205458,0.05502523776014618,-0.2862845570924703,0.375471077741631
0.006222570836730231,0.1659611499839443,-0.42083450214059254,0.6691233506912191
0.006905513520162331,0.4113820251625661,-0.5221419979746967,1.1733111608199378
0.007663410868007463,0.8275520653971697,-0.46514212757681217,1.9581182138341051
0.008504489341802686,1.3734658009072098,-0.16528513003010298,2.972939004586488
0.009437878277775391,1.8303533555331928,0.18747548425455973,3.8418052607633437
0.010473708979594508,1.877696271079572,0.23289412235377746,3.9908521802951253
0.011623224686798541,1.4744375120909006,-0.079385107276545,3.3242851309942103
0.01289890261253308,0.9176400902514653,-0.42029554878864545,2.331743113511198
0.014314589375234785,0.4643423097443306,-0.5406470177507708,1.4498774280306033
0.015885651294280528,0.18448179135362236,-0.4750903059164345,0.8227320485493999
0.01762914118095948,0.05314254271601704,-0.34474461338160894,0.43880729974305316
0.01956398343517065,0.009856956450236662,-0.22207451941382225,0.22695572830174532
0.021711179456945052,-0.0001751506513036941,-0.13377444931273685,0.11709742346409738
0.02409403560239527,-0.0026970947868037876,-0.07940007940299293,0.06214776034338724
0.026738416158399492,-0.003738194004024874,-0.049141638949730976,0.03481838627374309
0.029673024081888724,-0.003964310919872807,-0.03342801627502063,0.02100661480239045
0.032929712550971546,-0.003757484443395804,-0.02512735093872327,0.01387707470074994
0.036543830709572546,-0.0034645875568201628,-0.0202757386568281,0.010088267539086745
0.040554607358408275,-0.0032569641835778185,-0.017358090533410316,0.007870278125781999
0.04500557675700498,-0.003162452194945453,-0.015705459693198105,0.006342465833654589
0.0499450511585514,-0.003117605041673564,-0.014644957454586074,0.00522991732241888
0.05542664520663107,-0.003053027599330126,-0.013629035552141396,0.004480360506219907
0.06150985788580504,-0.0029680258941968143,-0.012551705298287832,0.004026143377456993
0.06826071834272393,-0.0028893180960484315,-0.01153434876641978,0.003761417093783062
0.0757525025877192,-0.0028298582818869636,-0.010723481508758601,0.0035577055619890954
0.08406652885618333,-0.002782226511729329,-0.010211518217289902,0.0032976683807267935
0.09329304026284696,-0.002730717901912198,-0.009925591902888142,0.0029739600562896013
0.10353218432956637,-0.002658460862391537,-0.009672901810124077,0.002685390437927825
0.11489510001873086,-0.0025589280195812583,-0.009359443186416409,0.002509446107896895
0.1275051240713013,-0.0024463544901510274,-0.009073485578013622,0.002465919939473769
0.1414991297434576,-0.002330924673072765,-0.00887639743405629,0.0025238974768120124
0.15702901247293774,-0.0022175872271809924,-0.008710783504739035,0.0026069101591118626
0.17426333860096507,-0.0021014158834320226,-0.008458984172947416,0.00264410705866734
0.19338917504552322,-0.001976990053144186,-0.008062653252829085,0.002634737445841008
0.21461411978584058,-0.0018373814076724216,-0.007503905292257355,0.002608207444038187
0.23816855519761607,-0.0016835795951344594,-0.0068378232655237564,0.00258284789506144
0.2643081486974108,-0.0015229184495545132,-0.006171464739646178,0.0025610941703889984
0.29331662783900486,-0.0013613967000757226,-0.00559530969787468,0.0025464971895353223
0.32550885998350565,-0.001206218499705646,-0.00518493047207835,0.0025514092227238074
0.36123426997094304,-0.0010579715176430844,-0.004945231958029951,0.002588554027750693
0.40088063288984643,-0.0009145196892650419,-0.004806550874389963,0.0026765578792000326
0.4448782831127585,-0.0007707513455050714,-0.004685433167564966,0.0028396612686431657
0.4937047852839004,-0.0006249885383248195,-0.004542188620210459,0.0031096134050363723
0.5478901179593945,-0.0004779466070833359,-0.004365188493120516,0.0034792108609444632
0.6080224261649427,-0.00033569877280420246,-0.004187333957394632,0.003847718279731764
0.67475440531107,-0.00020632686272081837,-0.004046452260533042,0.0040666487104481
0.748810385759003,-8.957049975413637e-05,-0.0039356802319463,0.004087349567951514
0.8309941949353403,1.9060170066346023e-05,-0.0038113676433993203,0.003957890207930861
0.9221978823334341,0.00012190544083562371,-0.0036472804186239447,0.0037852158579342724
1.0234114021054528,0.00021431064647985058,-0.0034561569098078616,0.003716277695308333
1.135733358343105,0.0002889279426820882,-0.003261898176140822,0.003806653324681878
1.2603829296797273,0.0003387005824947954,-0.003104622557212783,0.003975634807733005
1.3987131026472386,0.0003663317049854778,-0.003015419631089131,0.004141346941463616
1.552225357427048,0.00039571042220978153,-0.0030104745264859954,0.004335949133942736
1.7225859653987874,0.0004469779385610091,-0.00308450429561553,0.0046025513864784845
1.9116440753857036,0.0005043989494629039,-0.003205444028769353,0.004876165532840814
2.121451784910632,0.0005316340654556486,-0.0033224238795629617,0.005021880605382364
2.35428641432242,0.0005176932317646401,-0.0034058618194077704,0.0050026704291545945
2.612675225563332,0.0004778818922653221,-0.0034479687072859594,0.0048741502970944765
2.8994228538828812,0.00042855711558686146,-0.003463359022045213,0.004679128728595347
3.2176417502507353,0.000381474352376233,-0.0034851683965981084,0.004435503668044195
3.5707859649004625,0.00034300725166283656,-0.003508597949764785,0.004171841576893993
3.9626886387014784,0.00031663031218476104,-0.003480312704236934,0.003973919630331588
4.397603609302721,0.0003012860426759853,-0.0033767988378966517,0.0038931901969195626
4.880251583654434,0.0002896098527199469,-0.0033051330253006787,0.0038744849143311456
5.415871378079476,0.0002742105130903832,-0.0033833130571049247,0.003830072601004857
6.010276782070388,0.00025855803481089276,-0.0035621618530547244,0.003772707285915458
6.669919663030129,0.00025192757923615556,-0.0036786599620023132,0.0037723308084839768
7.401959996915652,0.000254510050036105,-0.0036641379395279134,0.003829673786172676
8.214343584919439,0.0002567904553916705,-0.0035696263040227816,0.0038734125368092387
9.115888299750837,0.00025227997810957397,-0.0034719163943878278,0.003880839661847017
10.11637979766207,0.00024185655233434299,-0.0034462693942116066,0.003921927572065441
11.226677735108158,0.0002250805453062706,-0.0035216925246558724,0.004034757613108074
12.458833642950081,0.00019665698022021974,-0.0036488786169785316,0.004143689079994466
13.826221737646593,0.0001528012940250984,-0.0036818368590241977,0.0040783796530617
15.343684089300131,0.00010190714675727521,-0.0033777982347522307,0.003632811097863731
17.02769172225898,5.785128528561239e-05,-0.0025532890089643586,0.0026869225765661802
18.896523396912116,2.7095328257690063e-05,-0.0014452934602953193,0.0015029780067214121
20.970464013232306,9.764391019070611e-06,-0.0005752810394015385,0.0005949601182825922
23.27202478960412,2.52892618087633e-06,-0.00015591928090866349,0.00016087324543502172
25.826187606826746,4.5119823031294707e-07,-2.8362671603887067e-05,2.9235252454963215e-05
28.66067616948256,5.43139514088691e-08,-3.4416994203804957e-06,3.546167612702099e-06
31.80625692794119,4.3712170369819924e-09,-2.778982618468175e-07,2.8628704588190406e-07
35.297073027306574,2.3430405517871266e-10,-1.491560499919453e-08,1.5364844878233196e-08
39.17101490809261,8.351457256470362e-12,-5.319336400454214e-10,5.479402403763104e-10
43.47013158125035,1.978209951280972e-13,-1.2602664983032935e-11,1.2981756186922862e-11
48.241087041653735,3.113132816605589e-15,-1.983471859807602e-13,2.0431262548010738e-13
53.535666774107185,3.254561510446389e-17,-2.073654578503016e-15,2.1360175126544696e-15
59.411339849650396,2.2601560769408383e-19,-1.440086736083473e-17,1.4833947372729594e-17
65.93188271333541,1.0426247239239754e-21,-6.643252873918087e-20,6.843034695672861e-20
73.16807143427206,3.1949070350522843e-24,-2.0356917691898177e-22,2.09691066094763e-22
81.19844993184009,6.503210716263972e-27,-4.143640203896844e-25,4.268250743211957e-25
90.11018251665037,8.792984863055513e-30,-5.602614052962503e-28,5.771099796307748e-28
100.0,7.89738886676289e-33,-5.031969177043038e-31,5.183294046785161e-31
