tau,gamma,gamma_lo,gamma_hi
1e-07,5.023717835535477e-06,-3.616571965070484e-05,6.480908745161139e-05
1.1097524964120721e-07,2.5775761222498904e-05,-0.00018479427211581838,0.00033126168859182165
1.2315506032928263e-07,8.965752516994946e-05,-0.0006364591050072006,0.001141811554915712
1.3667163564620074e-07,0.00021719784191835984,-0.001507358887653416,0.0027089643153795444
1.5167168884709241e-07,0.00038691623799969857,-0.002561915157108571,0.004619910348098437
1.6831803533309585e-07,0.0005528664081216098,-0.0033733171218286186,0.006112206041879247
1.867913599020781e-07,0.0006963202532124734,-0.003802990340023827,0.0069069776349882355
2.0729217795953698e-07,0.0008226913205222626,-0.003991547368197747,0.00720775762605987
2.300430119772917e-07,0.0009355906045062501,-0.004084385139772782,0.007289482883413272
2.5529080682395163e-07,0.0010274768198980867,-0.0041424485442081846,0.007357606983061196
2.833096101839324e-07,0.0010952768249185855,-0.004158371199200489,0.007463959105352182
3.1440354715915e-07,0.0011538310630346174,-0.004094823828812397,0.007513487894034099
3.489101213406774e-07,0.0012160646699488956,-0.003922182387645339,0.007427009170973523
3.872038781812557e-07,0.0012814031300218641,-0.003686877915924299,0.0073383159616883025
4.2970047043208437e-07,0.001341599598414868,-0.0034644158232349934,0.007421333153269427
4.768611697714474e-07,0.0014001834016275092,-0.0033107449128756323,0.007646492220927026
5.291978735958437e-07,0.0014659105540951601,-0.003252502876117589,0.00782853589966423
5.872786613189477e-07,0.001540074219149155,-0.003267664599663246,0.007871079385692802
6.517339604882421e-07,0.0016144225581589036,-0.003295948620296943,0.007801164526475119
7.232633896483533e-07,0.0016838921942111886,-0.0032956370925922903,0.0076738001589074165
8.026433522257174e-07,0.0017527695998117443,-0.0032703571377666225,0.007556447183702342
8.907354638610439e-07,0.0018228084856000758,-0.0032402733412332267,0.007490738643894872
9.884959046625586e-07,0.0018920881114482962,-0.0032392506504325554,0.007508299535522337
1.096985797892384e-06,0.001953808775021804,-0.003276847808687976,0.007612978796932299
1.217382727739662e-06,0.002007625124803868,-0.0033156686423796333,0.00778967310058268
1.3509935211980278e-06,0.0020526934041978934,-0.003306170612122732,0.007986293794741266
1.499268432786047e-06,0.002091223373730681,-0.003273389968645055,0.008130334518039269
1.6638168860761274e-06,0.002125523279408144,-0.00328471138948904,0.0081472203825932
1.8464249428955464e-06,0.0021610816005733953,-0.003335675778902612,0.008071875657272952
2.049074689815846e-06,0.0022067197884917634,-0.0033432015142095526,0.008052270593054604
2.2739657523579273e-06,0.002263908390971016,-0.003270786093742991,0.008155877260458917
2.523539170434766e-06,0.002327224563594628,-0.00319092654045816,0.008312304258249002
2.800503894183631e-06,0.0023874874948611033,-0.0031629865739599403,0.008429955983177263
3.107866187782014e-06,0.0024441279090891273,-0.0031608130944523333,0.008520574682346883
3.4489622604057595e-06,0.0024933460317012714,-0.0031379982458839095,0.008622699717318683
3.827494478516315e-06,0.0025310883848796576,-0.0031293072233586545,0.008763658350668616
4.247571552536894e-06,0.0025516380202737707,-0.003195889092996026,0.008943325308480155
4.713753134116729e-06,0.002565578213139096,-0.003309383943310484,0.00916735857240453
5.2310993080562585e-06,0.0025928269611805903,-0.0033582791333384315,0.009422721721830512
5.805225516094895e-06,0.0026370026525949436,-0.003274398730491091,0.009628866632476453
6.44236350872137e-06,0.002682371535529048,-0.003075393916619925,0.009650416073074286
7.149428986597577e-06,0.0027117418868929785,-0.0028247116722658495,0.009450150729401802
7.934096665797492e-06,0.0027243116070848282,-0.002632386520538176,0.00921071598379546
8.804883581643465e-06,0.002722136642518312,-0.0025725019918070627,0.009100927793588428
9.771241535346501e-06,0.002717011958857322,-0.0026203107941438534,0.00913336297783463
1.0843659686896109e-05,0.002721280036032974,-0.0026988650978676406,0.009224178819855069
1.2033778407775906e-05,0.0027538225066400367,-0.0027461985321304474,0.00932140956239539
1.3354515629298974e-05,0.0028269769242179115,-0.0027324006241671935,0.00938860816552947
1.48202070579886e-05,0.0029269308714198455,-0.002705780646827674,0.009394962385713421
1.6446761779946626e-05,0.0030175248479076882,-0.002760968474604297,0.009319835239062846
1.8251834943190462e-05,0.003084139863322928,-0.0028922922894523556,0.009208980000025995
2.0255019392306664e-05,0.003147557326880487,-0.0029647532210838753,0.009200354864930498
2.2478058335487252e-05,0.003219529193331405,-0.0028963600269821424,0.009351886980056762
2.4945081352303165e-05,0.003288916698515926,-0.0027817252678086993,0.009570646132009605
2.7682866303920665e-05,0.003335686762769252,-0.0027434692198178624,0.009722360407212192
3.072112998861759e-05,0.0033661752569149332,-0.002808289451886235,0.009792028326537753
3.409285069746814e-05,0.003391967146737438,-0.0029440696771973595,0.009829393135246788
3.783462617131933e-05,0.003419444163764681,-0.003132917607150839,0.009930579063353028
4.1987070844439056e-05,0.00344490265620612,-0.003366053749044929,0.010175177917337951
4.659525668664687e-05,0.00346660715285556,-0.0036159865881427986,0.010522651532471691
5.170920242896755e-05,0.003487615284033957,-0.0038203803989579383,0.01081266003450381
5.7384416483024044e-05,0.0035095347436443773,-0.0039094848563572225,0.010924296614667057
6.368249944718586e-05,0.0035373388642040357,-0.0038321378799201517,0.01086349361652402
7.067181273927492e-05,0.003567308941248646,-0.0036020149711512846,0.010697447553672848
7.842822061337681e-05,0.003594686192519895,-0.0033624933489738965,0.01057839303179316
8.703591361485166e-05,0.0036087606652017035,-0.0032282911887641986,0.010601712585996745
9.658832241158708e-05,0.0036118364938812026,-0.003130373633075511,0.01071018037206833
0.00010718913192051276,0.0036085990726643234,-0.0029281832261893385,0.010770935238179978
0.00011895340673703195,0.0036115017503946865,-0.002643118554449377,0.01078400120757464
0.0001320088400831418,0.0036322183286855445,-0.0024252062616435042,0.01084975659075045
0.00014649713983072864,0.0036680884431448176,-0.0023314545337443093,0.011019726049791005
0.0001625755666443795,0.003705551361010958,-0.002294956691688041,0.011265088447887407
0.00018041864093920718,0.003740849225547059,-0.002265674399119035,0.0115202605423015
0.00020022003718155845,0.0037989950218988602,-0.002277240179631715,0.011733469587249861
0.0002221946860939524,0.003897375550195139,-0.002357974673776529,0.011877491879890255
0.0002465811075822604,0.004034757271855498,-0.002464894577021652,0.01202451968692541
0.0002736439997074672,0.004197809313282828,-0.002530105008120717,0.012256761068377588
0.00030367711180354605,0.004392685213682202,-0.002541329788351484,0.012636361899454716
0.00033700643292719284,0.004630502393090622,-0.0025221973587611743,0.013185505353955134
0.0003739937302478798,0.00492129985513126,-0.0025033494045030415,0.013916036443516754
0.0004150404757850477,0.005266789845758083,-0.0025113187361325163,0.014824196783433807
0.00046059220411451084,0.0056719411105313295,-0.002555358598150997,0.015919408197345067
0.0005111433483440171,0.0061487753170814865,-0.0026347534763210894,0.017241793033890028
0.0005672426068491978,0.006717765279227009,-0.002764938303547081,0.018892108242513597
0.0006294988990221888,0.007417067651105636,-0.002993946504569324,0.021064119590642364
0.0006985879746785249,0.00827585975389446,-0.0033471673215569047,0.02387824149969124
0.0007752597488629464,0.00932037579068162,-0.003779839682272492,0.027276487071242018
0.000860346441668451,0.010603530179997581,-0.004226033567195905,0.031143102711415325
0.0009547716114208065,0.012299819256684944,-0.0047095498883908855,0.035645670165077255
0.001059560179277617,0.014643810534737903,-0.005393312763011075,0.04115889237498764
0.0011758495540521582,0.01782465955684312,-0.006655356454500748,0.04828105773755064
0.0013049019780144017,0.022001640803525516,-0.008869770377478247,0.05770515158910007
0.001448118227674533,0.027561587042730755,-0.011602864256596635,0.07005185061792242
0.0016070528182616384,0.035179295672996505,-0.013331091106909613,0.08573712528477898
0.0017834308769319094,0.04568974339889492,-0.012815297737346415,0.10539068268028469
0.0019791668678535573,0.059879087373890756,-0.009934372822382364,0.1298619782396452
0.002196385372416547,0.0783715080101503,-0.004530694413349608,0.15955652148159385
0.002437444150122222,0.10128165652008461,0.004494811008233429,0.193798585033387
0.002704959730463137,0.12821504858107557,0.01923577755042503,0.23140008311786958
0.0030018358135755923,0.15869173669440154,0.04206016245851479,0.2729277768591888
0.003331294787934677,0.19165785074081138,0.07423017969562049,0.3188201526656045
0.0036969127071950323,0.22641298300912321,0.11276316076847875,0.36733182895253064
0.00410265810582719,0.2618329613652701,0.15003752793145464,0.413813895675667
0.004552935074866948,0.29668477791037895,0.18176791233176737,0.4564268895914011
0.00505263106533568,0.32939601485481423,0.20932450450224777,0.49766585677624325
0.005607169938205458,0.35829886205047906,0.23486680455916187,0.5373798971886854
0.006222570836730231,0.3830024013248225,0.25885886209189984,0.5696523842368278
0.006905513520162331,0.40261788566870227,0.2798993588406661,0.5868886421057924
0.007663410868007463,0.4169673443934269,0.29667704470633466,0.589952845467514
0.008504489341802686,0.4252678920946135,0.3073928321854115,0.5836343630462694
0.009437878277775391,0.4279535843171735,0.31170919890544285,0.5735325670828483
0.010473708979594508,0.42581138042638544,0.3099913967382589,0.5644192208724148
0.011623224686798541,0.4192467620613615,0.30294498465117137,0.5581134237334068
0.01289890261253308,0.40860705492420535,0.29180949053597727,0.5538762782434572
0.014314589375234785,0.3934785692438988,0.2768917212475876,0.5482565889969666
0.015885651294280528,0.37422432415597356,0.25837247863734114,0.5367863380455952
0.01762914118095948,0.35063323317322737,0.23562323234310137,0.5155416025748861
0.01956398343517065,0.3236548182366007,0.20881664528515778,0.48618047506309314
0.021711179456945052,0.2940665752614691,0.1785979082180986,0.4514509136122083
0.02409403560239527,0.2631874320046203,0.14739073864949345,0.4137429087858643
0.026738416158399492,0.23218762775099847,0.11790575433591194,0.37408647079098395
0.029673024081888724,0.20096531536351922,0.08943164314146318,0.3319793545318248
0.032929712550971546,0.16915856441141305,0.05963448272345937,0.28707717044140313
0.036543830709572546,0.1374120609691837,0.029916281755988608,0.2411364176620734
0.040554607358408275,0.10870197984257211,0.0072190202169451455,0.19983830891125354
0.04500557675700498,0.08498442293535775,-0.004392623711125306,0.16639087265251284
0.0499450511585514,0.06624356991126461,-0.00827223113787968,0.1395285128502536
0.05542664520663107,0.05163428276819257,-0.009300123742803186,0.11678534487270797
0.06150985788580504,0.040398008357117945,-0.009562927461189218,0.0976509696969948
0.06826071834272393,0.031988653832525166,-0.009310730344789058,0.08264657022506575
0.0757525025877192,0.02569009564307738,-0.008851403733116643,0.07141646060042811
0.08406652885618333,0.020784803836340494,-0.008763005717121176,0.06292291397314445
0.09329304026284696,0.016800072228289976,-0.00923272240888134,0.05604325692632433
0.10353218432956637,0.013565714329642847,-0.010011135026013307,0.049913538784762644
0.11489510001873086,0.010931601741674016,-0.010884043617281524,0.04409190013024207
0.1275051240713013,0.008719133879993074,-0.011839531103762032,0.038749061907515904
0.1414991297434576,0.006762119256264149,-0.012940602397045,0.0340569513719953
0.15702901247293774,0.004980889144952849,-0.014250649151753681,0.030052629525376476
0.17426333860096507,0.003330779171487026,-0.015730614266332123,0.02660647991856827
0.19338917504552322,0.001770004460020314,-0.017206936270407796,0.023515499069608356
0.21461411978584058,0.0002594951839847247,-0.0185019184619865,0.02057423670236375
0.23816855519761607,-0.0012567067766106343,-0.019821678068386694,0.017722589363804737
0.2643081486974108,-0.0028274857512590556,-0.021600500546210998,0.015046439740980615
0.29331662783900486,-0.004511197334485381,-0.024067414983295236,0.012628704356284633
0.32550885998350565,-0.006344678535157679,-0.027134225332286828,0.010572597426359505
0.36123426997094304,-0.00835776292983425,-0.030608192236171967,0.008881695495936348
0.40088063288984643,-0.010548425311570924,-0.03426267112238782,0.0074631886508877785
0.4448782831127585,-0.012917490244972145,-0.03795070930837746,0.006141632637261582
0.4937047852839004,-0.0154923816240451,-0.04176532183018142,0.00470411777536283
0.5478901179593945,-0.018283263083442018,-0.0457529017170923,0.003025885202161323
0.6080224261649427,-0.02130976612975051,-0.04987046522668047,0.0012646499632330023
0.67475440531107,-0.024546426261977176,-0.054014387728358426,-0.0003640308362434959
0.748810385759003,-0.02802017811787496,-0.058531397578673025,-0.0020644530173568004
0.8309941949353403,-0.031713832480062355,-0.06390944528312682,-0.00432729159610556
0.9221978823334341,-0.03558135699558464,-0.07004802376560644,-0.00733721901959978
1.0234114021054528,-0.03948472307438751,-0.07609361067330064,-0.010793619655730126
1.135733358343105,-0.04329043481411642,-0.08145489222134897,-0.014387010226996429
1.2603829296797273,-0.04693913714905992,-0.0863249051362599,-0.017941349008850214
1.3987131026472386,-0.05030800308992866,-0.0906518867167333,-0.021317089910426277
1.552225357427048,-0.05332469290759469,-0.09377879139337317,-0.024381890492531148
1.7225859653987874,-0.055812152282765363,-0.09489523685129686,-0.02698422686578771
1.9116440753857036,-0.05774561707994969,-0.09460681181370595,-0.02918963039273162
2.121451784910632,-0.05907898830667385,-0.09411750148901388,-0.031048284958254953
2.35428641432242,-0.05988871341110533,-0.09391025083110746,-0.03242266868785735
2.612675225563332,-0.06028370446210588,-0.09369446537315261,-0.03297268120506494
2.8994228538828812,-0.0602576347893986,-0.09322493469564484,-0.032564851321174995
3.2176417502507353,-0.05975219235409333,-0.09270078492073139,-0.03143002548920858
3.5707859649004625,-0.05864305210216373,-0.0921182424317647,-0.029730317771270266
3.9626886387014784,-0.057019688591102374,-0.09126424254818229,-0.027526615474883834
4.397603609302721,-0.05491231281778456,-0.0897177389686634,-0.024764507316841277
4.880251583654434,-0.05246250337712423,-0.08747295260812855,-0.021530520714589416
5.415871378079476,-0.049747079162862785,-0.08463061970928966,-0.018009287273529087
6.010276782070388,-0.04687931913066248,-0.08159223816464913,-0.014552408732399822
6.669919663030129,-0.04395238897686101,-0.07883085700613207,-0.011588194585903981
7.401959996915652,-0.04096982350277114,-0.07655497878466108,-0.009187260427644495
8.214343584919439,-0.03791492475316121,-0.0747306154514845,-0.007125346399179581
9.115888299750837,-0.03471344797378338,-0.07306452197501673,-0.005167028817360307
10.11637979766207,-0.03138706505006574,-0.07118201388614855,-0.003215126494200148
11.226677735108158,-0.027917756878856285,-0.06859805560449399,-0.001209580391261981
12.458833642950081,-0.024350949146281043,-0.06492850044460675,0.0008520721350561275
13.826221737646593,-0.020553157319730623,-0.059162567768551715,0.002748794548618502
15.343684089300131,-0.016167294608901612,-0.049607335023240995,0.003844757996120877
17.02769172225898,-0.011013200428838039,-0.03530280855603013,0.003518287339612055
18.896523396912116,-0.005894414212720932,-0.0193535266535116,0.002166061477289057
20.970464013232306,-0.002286030449410713,-0.007590965923986858,0.0008932782167941243
23.27202478960412,-0.0006127108941847865,-0.0020444969849096745,0.0002456696160773868
25.826187606826746,-0.0001109410134121,-0.0003709396853898375,4.495589057002148e-05
28.66067616948256,-1.3436796866565599e-05,-4.496424146475625e-05,5.468435724653892e-06
31.80625692794119,-1.0841128557424865e-06,-3.629046516568348e-06,4.419791755833467e-07
35.297073027306574,-5.816933085602593e-08,-1.9474733431130312e-07,2.37317234303325e-08
39.17101490809261,-2.0742246158773238e-09,-6.944760973513818e-09,8.464779769650604e-10
43.47013158125035,-4.91403795357708e-11,-1.645317693480775e-10,2.0056209266542013e-11
48.241087041653735,-7.733804099455677e-13,-2.5894550253829306e-12,3.156631891893012e-13
53.535666774107185,-8.085370011662337e-15,-2.70717730801879e-14,3.3001899698576344e-15
59.411339849650396,-5.61501165158434e-17,-1.8800444159107672e-16,2.2918861953204887e-17
65.93188271333541,-2.590253083522001e-19,-8.672811527020678e-19,1.0572700764128319e-19
73.16807143427206,-7.937307299215845e-22,-2.657608534540032e-21,3.2397946518165437e-22
81.19844993184009,-1.6156344854280522e-24,-5.409547921995142e-24,6.594587360442539e-25
90.11018251665037,-2.184498461084507e-27,-7.314246934615915e-27,8.916539631239716e-28
100.0,-1.9619999547813438e-30,-6.569266420867085e-30,8.008360788031005e-31
