tau,gamma,gamma_lo,gamma_hi
1e-07,8.958453385863381e-06,-7.895222821812169e-05,9.196232135788705e-05
1.1097524964120721e-07,4.596930992779683e-05,-0.0004033579947884772,0.0004710204267354962
1.2315506032928263e-07,0.00015993918105703203,-0.0013887246264927624,0.0016315880457312092
1.3667163564620074e-07,0.00038766138871669043,-0.003286246277403459,0.00391539811022876
1.5167168884709241e-07,0.000691132385862616,-0.005575423803144241,0.006840875306987491
1.6831803533309585e-07,0.0009878060060384448,-0.007317731618385067,0.00945601205542799
1.867913599020781e-07,0.0012405540371845261,-0.008211744114888848,0.011390024180156996
2.0729217795953698e-07,0.0014522826795730986,-0.008568715367017914,0.012809820088553383
2.300430119772917e-07,0.001624191967777905,-0.008693682893354976,0.01386869328300634
2.5529080682395163e-07,0.0017419887062295528,-0.008701458042204012,0.014518570239120454
2.833096101839324e-07,0.0018054605893278093,-0.00862347266209669,0.014689995806711086
3.1440354715915e-07,0.001855704399989415,-0.008529346139527843,0.014498925795098086
3.489101213406774e-07,0.0019294963438748365,-0.008446681928909782,0.014099900257651123
3.872038781812557e-07,0.002025935995429667,-0.008321555157320625,0.01367233022402981
4.2970047043208437e-07,0.002117106426696531,-0.00806993228140769,0.013325955311526631
4.768611697714474e-07,0.0021790104733581577,-0.007727430469749818,0.013034406686418745
5.291978735958437e-07,0.0021944597960031746,-0.007409740502900171,0.012670887727996898
5.872786613189477e-07,0.0021710474497213367,-0.007190605395377081,0.012153909714301586
6.517339604882421e-07,0.0021352876810428563,-0.007084504262052591,0.0115006920428615
7.232633896483533e-07,0.0020924626631507585,-0.007048427010521582,0.01082252636772498
8.026433522257174e-07,0.002021156340066349,-0.007006441522930672,0.010352307811725971
8.907354638610439e-07,0.0019038523169983197,-0.006909681450034077,0.010195746305279597
9.884959046625586e-07,0.0017604513396613068,-0.006808373610001532,0.010206559332634984
1.096985797892384e-06,0.0016126910162556954,-0.006762844223756498,0.010174909384936617
1.217382727739662e-06,0.0014596886475431584,-0.006794453493237126,0.010076211863170126
1.3509935211980278e-06,0.0012883846346447305,-0.006898650916586215,0.009983867129240983
1.499268432786047e-06,0.0011019739214965572,-0.007106005738139972,0.009963314650947908
1.6638168860761274e-06,0.0009173469694300276,-0.007456009325992212,0.010027437982186273
1.8464249428955464e-06,0.0007359914860947573,-0.007916662986954539,0.0101104192201333
2.049074689815846e-06,0.0005475190362328514,-0.008369093446318702,0.010089617940329625
2.2739657523579273e-06,0.00035426157666626967,-0.008714067971756,0.009908790302387177
2.523539170434766e-06,0.00018673229598578498,-0.008930572705551603,0.009662567274333326
2.800503894183631e-06,6.299162714729404e-05,-0.009021421200541809,0.009439610721357716
3.107866187782014e-06,-4.2141216266302645e-05,-0.009034006660466545,0.00926328354685008
3.4489622604057595e-06,-0.00016338159398582975,-0.009016238100672164,0.009085430220816756
3.827494478516315e-06,-0.00030501094766188883,-0.009037680451096423,0.008835848619334117
4.247571552536894e-06,-0.00044914587460495256,-0.00914302589534518,0.008441138056193844
4.713753134116729e-06,-0.0005834092754435212,-0.009300515221011493,0.007918672860462897
5.2310993080562585e-06,-0.0007017143218058015,-0.009415420558571934,0.007376961339994551
5.805225516094895e-06,-0.0008044856114904693,-0.009445582570338094,0.006939830115872017
6.44236350872137e-06,-0.0008953484466162696,-0.009446939741038475,0.006733089976297856
7.149428986597577e-06,-0.0009768797568830703,-0.009513191285656763,0.006761754581450319
7.934096665797492e-06,-0.001050276643331073,-0.009764446909181962,0.006868073232001443
8.804883581643465e-06,-0.001111939038597419,-0.010192914111454862,0.006903850384403513
9.771241535346501e-06,-0.0011563114468539392,-0.01056131306670732,0.00690740032303472
1.0843659686896109e-05,-0.001174730017189387,-0.010607927870702829,0.006980672002605019
1.2033778407775906e-05,-0.0011655850738423016,-0.010433055775045007,0.007160681365599801
1.3354515629298974e-05,-0.0011315124605381073,-0.0103153282336356,0.007405433031603992
1.48202070579886e-05,-0.0010823811440654326,-0.010298786816002659,0.007640845386496756
1.6446761779946626e-05,-0.0010334616969835818,-0.01020302895860178,0.007779814553262036
1.8251834943190462e-05,-0.0009907835991326398,-0.009994728737097934,0.007799298506744752
2.0255019392306664e-05,-0.0009507824982431939,-0.009912603881944879,0.007780224091030991
2.2478058335487252e-05,-0.0009078090858423731,-0.010098643118619261,0.007831457784734763
2.4945081352303165e-05,-0.000863037505422454,-0.010405516716791744,0.008074752595892038
2.7682866303920665e-05,-0.0008177658510143891,-0.010594642944095577,0.00853306306433255
3.072112998861759e-05,-0.000773111795224679,-0.010588020938769645,0.00903491318199839
3.409285069746814e-05,-0.0007326197632469618,-0.010418667504999377,0.00932851967694064
3.783462617131933e-05,-0.0007110470657943484,-0.01023813723116202,0.009345715105889756
4.1987070844439056e-05,-0.000728658061399913,-0.010232964930932878,0.009160182610395294
4.659525668664687e-05,-0.0007891900718348347,-0.01045325374296687,0.00889963294503593
5.170920242896755e-05,-0.0008761723332050374,-0.01081566610440909,0.008716360806332125
5.7384416483024044e-05,-0.000967213812981885,-0.011258755082713769,0.00868502006333243
6.368249944718586e-05,-0.0010401912919212651,-0.011800622540958249,0.008790202284533158
7.067181273927492e-05,-0.001089050229735653,-0.012407596235994332,0.008955398621737417
7.842822061337681e-05,-0.0011399727967563369,-0.01294547985387861,0.009097509796204037
8.703591361485166e-05,-0.001220697863357437,-0.013301016772892178,0.009202625987750478
9.658832241158708e-05,-0.0013335675992081743,-0.013625001926571996,0.009472491066793796
0.00010718913192051276,-0.001464236559005973,-0.01414682225648864,0.010136182464137979
0.00011895340673703195,-0.0016073870358185225,-0.014913323711710382,0.011124354837581323
0.0001320088400831418,-0.0017653281290316237,-0.015814216657053938,0.012101797509883173
0.00014649713983072864,-0.0019443104773706925,-0.01685423693145856,0.012830836838207753
0.0001625755666443795,-0.002144039433262461,-0.018205619814380607,0.013286299394658358
0.00018041864093920718,-0.0023398019831696246,-0.02004324530549463,0.013725252048746101
0.00020022003718155845,-0.0024799908978819334,-0.022482069513670308,0.014738929340670927
0.0002221946860939524,-0.0025393306995113688,-0.025592229913556325,0.016736343477476347
0.0002465811075822604,-0.0025602154761202723,-0.02947308483397013,0.019679073565543423
0.0002736439997074672,-0.0024969681134127545,-0.03439698786354495,0.024038214041192985
0.00030367711180354605,-0.002025149659610324,-0.04128333172946918,0.03221973207587391
0.00033700643292719284,-0.0006210954390866063,-0.052266361293537844,0.04839051075475787
0.0003739937302478798,0.0023478424925225116,-0.07160145111576739,0.07751337197752925
0.0004150404757850477,0.009013747295788646,-0.10442556032746475,0.12658410213754975
0.00046059220411451084,0.026542349010891444,-0.15149260190085623,0.20736595103880456
0.0005111433483440171,0.06961202563543623,-0.2064840386496388,0.339131176817876
0.0005672426068491978,0.15793244040142937,-0.26014334131011335,0.551353758841613
0.0006294988990221888,0.3123038673321588,-0.2966419889257956,0.881102719476073
0.0006985879746785249,0.5440321405639295,-0.2822861022133693,1.3584976141446596
0.0007752597488629464,0.8332763439203891,-0.16379851957851008,1.9761647818381067
0.000860346441668451,1.1321681361208118,0.07667732032789909,2.6875941275112365
0.0009547716114208065,1.369842859780703,0.31855276023961737,3.3964824208774766
0.001059560179277617,1.461905035100538,0.35706856068731974,3.9351761800800986
0.0011758495540521582,1.3781343424446715,0.09644640772648043,4.110471153855152
0.0013049019780144017,1.146835464014236,-0.40933493065389165,3.743684760577747
0.001448118227674533,0.8316552823466938,-0.9712983575940876,2.90176036382541
0.0016070528182616384,0.5330948964292651,-1.2793811225898262,1.9860037820577514
0.0017834308769319094,0.3132127861017613,-1.193248235977026,1.31109008983345
0.0019791668678535573,0.15965691191864811,-0.9359389299392553,0.8905906337039277
0.002196385372416547,0.03874249195301056,-0.7847763516786482,0.620055089271056
0.002437444150122222,-0.06136355914077119,-0.7919962800722007,0.4290840269086426
0.002704959730463137,-0.1350727141811931,-0.8741436566166688,0.2929374077227142
0.0030018358135755923,-0.17932825104114322,-0.9595385445902095,0.20660451023815865
0.003331294787934677,-0.19406971085484415,-1.0086399985157326,0.17445540488033354
0.0036969127071950323,-0.18052311820317157,-1.00737721266074,0.19951026455896104
0.00410265810582719,-0.13972208648799297,-0.961173995125181,0.2832324715181681
0.004552935074866948,-0.0698866656055967,-0.8979475852672919,0.4322817530712055
0.00505263106533568,0.03467586924697463,-0.8663434233506427,0.6642929731690584
0.005607169938205458,0.19254433824220904,-0.8620220341539339,1.025508097746153
0.006222570836730231,0.43337966205941814,-0.7792981935146869,1.582456327111002
0.006905513520162331,0.7635039007796416,-0.5192197224242464,2.32244609299055
0.007663410868007463,1.1126672103037571,-0.1377396970249756,3.0138389322984698
0.008504489341802686,1.368406008984101,0.21840462943463265,3.341453066223051
0.009437878277775391,1.4702326909269847,0.44598053675284843,3.2504979367422226
0.010473708979594508,1.4042509805478813,0.4933042005476178,2.897955655472043
0.011623224686798541,1.1946713938753097,0.37422675097645836,2.421403609190851
0.01289890261253308,0.903828505436194,0.16482919254566503,1.8999184215249247
0.014314589375234785,0.5951423781725094,-0.05397060219231332,1.3835948438648238
0.015885651294280528,0.3340407713967646,-0.2092769923648775,0.9380947162962407
0.01762914118095948,0.16059605570382873,-0.2625164079745867,0.6078766924106316
0.01956398343517065,0.06564702458440391,-0.23898324475016638,0.38360579857437704
0.021711179456945052,0.02117857972628618,-0.18540205768118295,0.23554756173178384
0.02409403560239527,0.0033848133899088543,-0.13213769599886213,0.1391076698290389
0.026738416158399492,-0.0032234902940142533,-0.09328054252864722,0.07959013088457538
0.029673024081888724,-0.006004079969328711,-0.06989319170769613,0.04570820546380377
0.032929712550971546,-0.007285210663329451,-0.05633688950807929,0.02764542724742501
0.036543830709572546,-0.007723614909426226,-0.047565274174186115,0.018460444160679126
0.040554607358408275,-0.007733388457761542,-0.04112927021359197,0.013735302519798724
0.04500557675700498,-0.007567525328526867,-0.03601238101568788,0.011020795220291747
0.0499450511585514,-0.007309784820654846,-0.03189016731088658,0.009251382089017941
0.05542664520663107,-0.006962012724844692,-0.028600880759347917,0.008034445952903957
0.06150985788580504,-0.00656717066608278,-0.02599918721437255,0.007261810888325426
0.06826071834272393,-0.006175617974105618,-0.023926774306518652,0.006889444721544595
0.0757525025877192,-0.00581347622826002,-0.022270397933226015,0.006773977933637801
0.08406652885618333,-0.005479855699476818,-0.02093580856065457,0.006694800878777275
0.09329304026284696,-0.00515614927120737,-0.019786401293850408,0.006503161611842039
0.10353218432956637,-0.004822713497512353,-0.018669950171667685,0.006156057006998883
0.11489510001873086,-0.004473898285433534,-0.017508309145849384,0.005739624625303687
0.1275051240713013,-0.004138733038011138,-0.016388787530611803,0.0054861630140918445
0.1414991297434576,-0.00383197946895186,-0.01540621305245093,0.0055458546002763445
0.15702901247293774,-0.0035490476724862226,-0.014660716906521966,0.005857395859726345
0.17426333860096507,-0.0032791499684888766,-0.01420228199861382,0.006259692987318172
0.19338917504552322,-0.0030388387939084553,-0.014032156864157985,0.006604195782855725
0.21461411978584058,-0.0028454003365756906,-0.014084317190187755,0.0067802052666645065
0.23816855519761607,-0.0026771778971584163,-0.014226806653005818,0.006818568746245296
0.2643081486974108,-0.0024844049768797307,-0.014255649271263984,0.006839670596582832
0.29331662783900486,-0.0022395080001917263,-0.013993507416519368,0.006942569260247896
0.32550885998350565,-0.001953341247851556,-0.013343614582149926,0.007175992825651729
0.36123426997094304,-0.0016519723116113663,-0.012404511992568748,0.007509762832099347
0.40088063288984643,-0.0013797118836387065,-0.011571273538039436,0.007847682199661659
0.4448782831127585,-0.0011628978288000416,-0.011121630642337978,0.008149267091149907
0.4937047852839004,-0.0009919653315411388,-0.010975112021548944,0.008534287557865452
0.5478901179593945,-0.0008384834845326199,-0.01087149378822476,0.009054922216430691
0.6080224261649427,-0.000674035092971156,-0.010609580350641525,0.00947008205699284
0.67475440531107,-0.00048334268846352495,-0.010087650471644415,0.009433056561468207
0.748810385759003,-0.00028793049909861974,-0.009437013651924984,0.009004495455869187
0.8309941949353403,-0.00013489409492417186,-0.008940414089532127,0.00857869919343912
0.9221978823334341,-3.49009203813953e-05,-0.008712018830267804,0.008403098356978021
1.0234114021054528,4.202410699912847e-05,-0.008660949968420801,0.008475191601507191
1.135733358343105,0.00011033400864145689,-0.00868079730738147,0.00866380817590709
1.2603829296797273,0.00014384775735143767,-0.008754786149704121,0.008794317402758605
1.3987131026472386,0.00012152944050188271,-0.008859005017562054,0.008759306232315515
1.552225357427048,7.037227520357096e-05,-0.008924044591779676,0.008655776374059882
1.7225859653987874,2.776917941415196e-05,-0.008891859080669655,0.008614759606670798
1.9116440753857036,-7.912462003413053e-06,-0.008869743695621636,0.008644049815435885
2.121451784910632,-6.107345429675075e-05,-0.009002006760501516,0.008651281013057364
2.35428641432242,-0.00013562665947876258,-0.009215009052066422,0.008578479975150015
2.612675225563332,-0.0002137099063362259,-0.009261574244315568,0.008419710688166835
2.8994228538828812,-0.00029081399517018135,-0.009105014989452981,0.008200812962128467
3.2176417502507353,-0.00038281050422386045,-0.009023563366990377,0.007992034737424901
3.5707859649004625,-0.0004986748156324146,-0.009206511904872266,0.007860731369329011
3.9626886387014784,-0.0006223034797093842,-0.009557939908604924,0.007883120966577149
4.397603609302721,-0.0007293296047572152,-0.009883928592795993,0.008093774791725919
4.880251583654434,-0.000805324046041173,-0.010104609711611777,0.008455192793048927
5.415871378079476,-0.0008444996626531104,-0.010207487147020921,0.00885558019818203
6.010276782070388,-0.0008597854765631719,-0.010255137687624325,0.009149022683549357
6.669919663030129,-0.0008729245012057557,-0.010350626625286038,0.00919162953556997
7.401959996915652,-0.0008970876372907742,-0.010620697930338412,0.009026138090762336
8.214343584919439,-0.0009336464775566613,-0.011166289641970693,0.008861726992572014
9.115888299750837,-0.0009740451767821467,-0.011875709739162849,0.00880466958537564
10.11637979766207,-0.0010023438865778506,-0.01238775154489787,0.008796750217044642
11.226677735108158,-0.0010061741725167586,-0.01246453071539689,0.008754094852714788
12.458833642950081,-0.000985711084214642,-0.012250747991542682,0.008662548731108556
13.826221737646593,-0.0009304651035848971,-0.011754607264020452,0.008372721377680557
15.343684089300131,-0.0008066684492685643,-0.010438125389637782,0.007453863865655347
17.02769172225898,-0.000587942869134169,-0.007755881000717682,0.005538927454678387
18.896523396912116,-0.0003265894443671247,-0.004355421685978011,0.003109421744425741
20.970464013232306,-0.0001288878878578187,-0.001727684909975406,0.0012331524565777638
23.27202478960412,-3.4805925222416825e-05,-0.0004675896335236018,0.00033371084791326605
25.826187606826746,-6.321911464942024e-06,-8.50077759922551e-05,6.066579060867096e-05
28.66067616948256,-7.666693170480825e-07,-1.0312913381072628e-05,7.359666998484192e-06
31.80625692794119,-6.188891906340573e-08,-8.326307795731073e-07,5.941906502183597e-07
35.297073027306574,-3.3214226132275017e-09,-4.468796451983917e-08,3.189058801287445e-08
39.17101490809261,-1.184467046578734e-10,-1.5936769878909867e-09,1.1372912240253297e-09
43.47013158125035,-2.806213675733335e-12,-3.7757433144947626e-11,2.694471650691865e-11
48.241087041653735,-4.416533021955139e-14,-5.942442537297438e-13,4.2406853935456336e-13
53.535666774107185,-4.617327474405446e-16,-6.212621679858574e-15,4.4334920471153595e-15
59.411339849650396,-3.2065826346402668e-18,-4.314465089914819e-17,3.0789169175640464e-17
65.93188271333541,-1.47922547415542e-20,-1.9903021794190993e-19,1.4203324946532325e-19
73.16807143427206,-4.532789341053643e-23,-6.098881919119585e-22,4.352324089559569e-22
81.19844993184009,-9.226468892949657e-26,-1.2414242662663752e-24,8.859133196081805e-25
90.11018251665037,-1.2475104066565418e-28,-1.6785291720717874e-27,1.197842985590627e-27
100.0,-1.1204473091032894e-31,-1.5075653860731696e-30,1.0758386880520512e-30
