tau,gamma,gamma_lo,gamma_hi
1e-07,2.1870912053741476e-05,5.871150908866997e-07,6.891551395447379e-05
1.1097524964120721e-07,0.00011195111865891365,3.087077824701868e-06,0.0003522804973916535
1.2315506032928263e-07,0.00038721742080650756,1.13508331240893e-05,0.0012145225863636228
1.3667163564620074e-07,0.000926043600711214,3.078135554948017e-05,0.002883158614022847
1.5167168884709241e-07,0.001606198143618304,6.605791306449869e-05,0.004925289068988023
1.6831803533309585e-07,0.0021907117257746614,0.0001176029452022917,0.006548585007732887
1.867913599020781e-07,0.0025864953397426297,0.00017374170039458872,0.00749570671875145
2.0729217795953698e-07,0.002841019211236407,0.0002140784917675554,0.008014206237398442
2.300430119772917e-07,0.0030212445272626456,0.00023574032209013404,0.008321805228295237
2.5529080682395163e-07,0.003168914760270636,0.00025913181640620377,0.008447769568584574
2.833096101839324e-07,0.0032888718474479196,0.0003004037051617784,0.00838869010375492
3.1440354715915e-07,0.0033602734559066622,0.00035536132604749597,0.008256793121953777
3.489101213406774e-07,0.003359489152970201,0.000409086278737198,0.008137601524977141
3.872038781812557e-07,0.0033061423106138174,0.00044550994010916447,0.008002056634526675
4.2970047043208437e-07,0.003231054077403331,0.00045379744165816477,0.007776422795927514
4.768611697714474e-07,0.003152961896745778,0.0004442837143779296,0.007513588260937543
5.291978735958437e-07,0.0030745420933314775,0.00043727219435928306,0.007338360866200589
5.872786613189477e-07,0.002991744429393271,0.0004355865746051418,0.007271306291565818
6.517339604882421e-07,0.0029009149876551028,0.000423383637748862,0.007220656728488583
7.232633896483533e-07,0.0028008817956110066,0.0003894897375856317,0.007116413861401991
8.026433522257174e-07,0.0027028071609947802,0.0003384867701904565,0.006981790595872327
8.907354638610439e-07,0.00261405519220949,0.00028024007296632196,0.006866047225909194
9.884959046625586e-07,0.002542140109614928,0.00022740198987068324,0.006831623607879233
1.096985797892384e-06,0.002487679112872585,0.00019060438831451233,0.006884080492435395
1.217382727739662e-06,0.0024502725644072357,0.00017375611265041933,0.006930436396229605
1.3509935211980278e-06,0.002423834736638438,0.0001744783692853795,0.006848177548640604
1.499268432786047e-06,0.002400500268322209,0.00018157317761338397,0.0066649124018779956
1.6638168860761274e-06,0.0023712001484914253,0.00018090915954432384,0.006513867423935031
1.8464249428955464e-06,0.002335920862036494,0.00017417286244600992,0.006455570548659409
2.049074689815846e-06,0.002306094253360667,0.00017917174842179873,0.006454395218443407
2.2739657523579273e-06,0.002286861121742952,0.00020371470521038683,0.006465087360721688
2.523539170434766e-06,0.002276903941445225,0.0002341481270373543,0.006487314085632608
2.800503894183631e-06,0.0022701687073368895,0.0002541518103034442,0.00651626252325942
3.107866187782014e-06,0.002268233614307187,0.0002592708717751206,0.006533743183066401
3.4489622604057595e-06,0.0022706111137237054,0.0002516148890585727,0.006503509497546442
3.827494478516315e-06,0.002276644364275533,0.00023703735834102558,0.006416629980334009
4.247571552536894e-06,0.0022811064003636487,0.00022146114513677293,0.006274824775728844
4.713753134116729e-06,0.002281026044415321,0.00020705337855202855,0.006102223468951191
5.2310993080562585e-06,0.0022753489050467324,0.00019271749203573298,0.005945976432739596
5.805225516094895e-06,0.0022675555238114774,0.00017608724590206025,0.005865056933515704
6.44236350872137e-06,0.0022690189082229468,0.00015569900120824387,0.005928537127670272
7.149428986597577e-06,0.0022874299218501276,0.00013404682079871282,0.006134433936888511
7.934096665797492e-06,0.0023285181616812104,0.00012110174405171207,0.00638285224822194
8.804883581643465e-06,0.002390694519773727,0.00012890839489319286,0.006583127498581908
9.771241535346501e-06,0.0024695417930305627,0.0001657012852397894,0.006771868306298842
1.0843659686896109e-05,0.0025520557290920278,0.000229664892167672,0.00700054325997523
1.2033778407775906e-05,0.002623529673302562,0.0002963121092639405,0.007224162930974958
1.3354515629298974e-05,0.002665208927923533,0.00033006169375504455,0.007330407424648289
1.48202070579886e-05,0.0026728146516493178,0.00032126781827061525,0.0073044031268630185
1.6446761779946626e-05,0.002656490687747613,0.00028571563032833035,0.007228562822467852
1.8251834943190462e-05,0.0026332917594376667,0.00023988701850160014,0.00715972848660746
2.0255019392306664e-05,0.002628329375956962,0.00019559309959216615,0.007105794175718561
2.2478058335487252e-05,0.0026474487849651586,0.0001616282724461207,0.007046597531688098
2.4945081352303165e-05,0.002671333795969992,0.00014703833935280941,0.006977702762766408
2.7682866303920665e-05,0.002674446175660557,0.00015669327533985182,0.006887222359011155
3.072112998861759e-05,0.00265938326657438,0.00018379420819113692,0.006776109478747173
3.409285069746814e-05,0.002638159813560629,0.0002161451735725435,0.006644808120593518
3.783462617131933e-05,0.0026210456568942298,0.00024574924501805605,0.006521668778283268
4.1987070844439056e-05,0.002610545150780726,0.000269274682446854,0.006446706683125848
4.659525668664687e-05,0.002603337874916381,0.00029051999126436306,0.006439273162401745
5.170920242896755e-05,0.0025937633624979707,0.0003167805409442904,0.006491555172917643
5.7384416483024044e-05,0.0025791919850789735,0.00034555710084772646,0.006561050251063648
6.368249944718586e-05,0.0025674786608538614,0.0003606629994490061,0.006584024257717422
7.067181273927492e-05,0.0025590958891811163,0.00035094938522818884,0.0065193857907805824
7.842822061337681e-05,0.0025479308525735373,0.00032613675881529856,0.006414711262661193
8.703591361485166e-05,0.002526078236248618,0.00030147738128771123,0.006327848686286219
9.658832241158708e-05,0.0025065541230081204,0.00028466211860839896,0.006289224895912707
0.00010718913192051276,0.0025045173915877053,0.0002767284152639259,0.006304626655177166
0.00011895340673703195,0.0025159791398089424,0.00027486350904723994,0.006393147285611408
0.0001320088400831418,0.0025197183790405375,0.00027281351413434654,0.006559597285953406
0.00014649713983072864,0.002504776059793428,0.000261106588911704,0.006721068399379154
0.0001625755666443795,0.0024785527539606745,0.00023148939301559238,0.006718019832155037
0.00018041864093920718,0.0024515374015330947,0.00019480772699748234,0.0065048515075414115
0.00020022003718155845,0.002438361623462529,0.00018901377889576072,0.006259817052858869
0.0002221946860939524,0.0024427337269355576,0.00023656189647126838,0.006148150286052602
0.0002465811075822604,0.0024575062068607524,0.00030782461596678956,0.006178057132105274
0.0002736439997074672,0.0024680855829132585,0.0003569361941051038,0.006269928006472616
0.00030367711180354605,0.0024718388228728095,0.000367900539584092,0.006368000995924796
0.00033700643292719284,0.0024711042175236367,0.0003467678498254904,0.00643760511427868
0.0003739937302478798,0.002473376999900996,0.0003078224744851403,0.00647760888215942
0.0004150404757850477,0.002487390831133478,0.0002674901943645106,0.006506953594109812
0.00046059220411451084,0.0025159842095023805,0.0002343888759230676,0.00654971185993168
0.0005111433483440171,0.0025579565968986296,0.00021114703613345912,0.006636350860656653
0.0005672426068491978,0.0026103625017274857,0.00020349835261126517,0.006770065455697925
0.0006294988990221888,0.002676854736389991,0.0002252836477051776,0.006929087795467448
0.0006985879746785249,0.00275576966327284,0.00028545869898121144,0.007078114890153442
0.0007752597488629464,0.002842618228623336,0.00037137926379344154,0.00721699243682341
0.000860346441668451,0.0029278949613326835,0.00045405062597970184,0.007365774061562736
0.0009547716114208065,0.0030145702613206733,0.000497924269165545,0.007593112989019235
0.001059560179277617,0.0031099514935845752,0.0004759031585389139,0.007960159982227835
0.0011758495540521582,0.0032244314736710727,0.0004163627709229231,0.008425704102514952
0.0013049019780144017,0.0033680608702929197,0.0003918987844416262,0.008857812891166267
0.001448118227674533,0.003547347092238736,0.00042819215354826333,0.009215606754599018
0.0016070528182616384,0.003767716707179406,0.0004793651716839963,0.00961558775546864
0.0017834308769319094,0.004033721752523148,0.0005040378528327999,0.010188306405967105
0.0019791668678535573,0.0043611757637178295,0.000510711804811525,0.011035093288739434
0.002196385372416547,0.004776311060374596,0.0005200010057794301,0.012258462962096624
0.002437444150122222,0.005336152749784021,0.0005306754225589907,0.014043607979857875
0.002704959730463137,0.0061090897557511,0.0005297596223512841,0.016665494633772156
0.0030018358135755923,0.007174096758194288,0.0005193779024872057,0.020547275920194813
0.003331294787934677,0.00867571257018674,0.0005161677370250433,0.02639308014510072
0.0036969127071950323,0.011011192898148914,0.0005392979894053873,0.03563554553347005
0.00410265810582719,0.015080876905853111,0.0006126863243839303,0.05157058271787628
0.004552935074866948,0.022888662760001614,0.0007898548720587593,0.08204322654543575
0.00505263106533568,0.03933679809704377,0.0013285501720376961,0.14268474683118318
0.005607169938205458,0.07668716320121041,0.003648869930170757,0.25871633861337723
0.006222570836730231,0.16229386879863214,0.01450659608171161,0.46776572684734685
0.006905513520162331,0.3458097734681394,0.05759691922784169,0.8208957882412282
0.007663410868007463,0.6915566256930333,0.18099450110448762,1.3611271715931172
0.008504489341802686,1.2032148152681479,0.4067277614456793,2.054292793878084
0.009437878277775391,1.6737668903307927,0.6275638776820887,2.6603546212520195
0.010473708979594508,1.76569096774412,0.656547671398907,2.8093249658181154
0.011623224686798541,1.4206991851725275,0.4680858881336188,2.422976916735566
0.01289890261253308,0.9233763434218699,0.2335050486503364,1.784405967074016
0.014314589375234785,0.5193344363002829,0.08700266024592695,1.1643786787281545
0.015885651294280528,0.26447302012657947,0.027543040162432787,0.6873459110863888
0.01762914118095948,0.12772563933585415,0.008788388878066513,0.38000638844250156
0.01956398343517065,0.06280449594405743,0.003138260924410612,0.20590313273124003
0.021711179456945052,0.03387013232043724,0.0013499358701737768,0.11537151064049152
0.02409403560239527,0.02099230061679122,0.0008225037400429072,0.07069892437555979
0.026738416158399492,0.014803532629615358,0.000662884957944949,0.04815934844826855
0.029673024081888724,0.011374604556118422,0.0005665490334663471,0.035712554500075745
0.032929712550971546,0.009245284772309653,0.0004928514601208162,0.02836612056333326
0.036543830709572546,0.007826988013209583,0.0004588366408356252,0.02378078079756896
0.040554607358408275,0.006809353656570441,0.0004671523705945649,0.02038513626987547
0.04500557675700498,0.006016078148157697,0.000496004190021052,0.0173485461900801
0.0499450511585514,0.0053890263714174835,0.0004994786804534175,0.014759501574202773
0.05542664520663107,0.0049033865297004875,0.00044708739439858186,0.012886538252565694
0.06150985788580504,0.0045261584646383,0.0003663451785578088,0.011632826094488971
0.06826071834272393,0.004216910315012724,0.00030444135674099614,0.010713043146432294
0.0757525025877192,0.003954557561123109,0.0002760121328710669,0.009964204023322097
0.08406652885618333,0.003733705162732087,0.0002725690995448354,0.009346386994023985
0.09329304026284696,0.0035553082601996674,0.00029194121434557795,0.008846333349751243
0.10353218432956637,0.0034249773290276546,0.00034014427308292944,0.008454584183982808
0.11489510001873086,0.0033365723085350867,0.0004078757343034639,0.008155165577548622
0.1275051240713013,0.003275622826797257,0.00046085153696418657,0.007948750976094505
0.1414991297434576,0.0032258682034680664,0.00047099397515864064,0.007837539092197776
0.15702901247293774,0.0031860815343342837,0.0004394082667872277,0.007841564921867319
0.17426333860096507,0.0031535606709643753,0.0003830291147748495,0.007940563603851824
0.19338917504552322,0.003126226564211458,0.0003305306067965234,0.008045740379334804
0.21461411978584058,0.0030962032308869663,0.00030905552066233896,0.008038491967152506
0.23816855519761607,0.003060683955564556,0.0003214662205969381,0.007905975127988341
0.2643081486974108,0.0030163739328208893,0.00035061040226550704,0.0077137900956991395
0.29331662783900486,0.002956128916844064,0.0003745682261279389,0.00753256956290803
0.32550885998350565,0.0028728075334661114,0.0003717444319150958,0.00741750554280255
0.36123426997094304,0.002767516024501515,0.00033508142889958304,0.007351978787441241
0.40088063288984643,0.0026641633045025115,0.000278965914897815,0.007252733100432116
0.4448782831127585,0.002582494581417614,0.00021914428701283047,0.0070509986621232834
0.4937047852839004,0.002533836193101048,0.0001645368700049241,0.006793983082303379
0.5478901179593945,0.0025171209196841807,0.00012387905948550967,0.0065622718952656
0.6080224261649427,0.0025251030136526414,0.00011306358940039013,0.006423745196608373
0.67475440531107,0.0025445605431712623,0.00014507087646012417,0.006408986708112553
0.748810385759003,0.002568148114763291,0.00020209653454867895,0.006492308301851139
0.8309941949353403,0.0025912481703069075,0.00024348727531998135,0.006613635436608847
0.9221978823334341,0.0026103723151375286,0.0002514477950579047,0.006761635017730315
1.0234114021054528,0.0026245890502808915,0.0002392306980336916,0.006976504811131525
1.135733358343105,0.0026339296146347694,0.00022335203038442744,0.007232228151537509
1.2603829296797273,0.002647160730053485,0.00021190161890832172,0.007398136939363008
1.3987131026472386,0.002667164604006056,0.00020497504572972294,0.007366923189507542
1.552225357427048,0.0026931877367345584,0.00019671204574468165,0.007215273126824681
1.7225859653987874,0.0027188575422124836,0.00018211039852482542,0.007075965746669964
1.9116440753857036,0.002747274136224986,0.000167018720631991,0.007026185865780118
2.121451784910632,0.0027819532033054616,0.0001647002676890768,0.00707025071477258
2.35428641432242,0.0028223616646213747,0.00018520328900379498,0.007153888114398912
2.612675225563332,0.002862734604418502,0.00023028231113654969,0.007198600169230357
2.8994228538828812,0.002900837468684586,0.00028384094051084677,0.007215163236240054
3.2176417502507353,0.002943526688572367,0.00031204672351923987,0.007333864073238207
3.5707859649004625,0.0029931861710304265,0.0003011437289973658,0.007635035741208314
3.9626886387014784,0.003050160286965692,0.0002798970082688936,0.008071776038504818
4.397603609302721,0.003106866349112779,0.0002780011454651911,0.008542328600557992
4.880251583654434,0.0031590391071862865,0.000290518679833962,0.008982623859664886
5.415871378079476,0.0031977483018148286,0.0002975896276796777,0.009335039696576284
6.010276782070388,0.003220633656134503,0.00029673566893524277,0.009571414203074727
6.669919663030129,0.0032242182720629837,0.0002968928749905217,0.00965991115646328
7.401959996915652,0.003206204152249544,0.0002954288686315864,0.00958965876241835
8.214343584919439,0.003164649065992083,0.00027696385358644206,0.00938040574638185
9.115888299750837,0.0030943051388319636,0.00023575989982606323,0.009093649776141102
10.11637979766207,0.0029953317106116775,0.0001854299959285875,0.008866108736020844
11.226677735108158,0.0028681681896731404,0.00014050692166394255,0.00878210557606946
12.458833642950081,0.002721255549677527,0.00010704802501831782,0.008797305851444268
13.826221737646593,0.002521490492120747,8.438274826569883e-05,0.008646968989633734
15.343684089300131,0.0021663711068959706,6.622593292112079e-05,0.007803482124698146
17.02769172225898,0.001572833466195507,4.61272780496681e-05,0.005847073864992474
18.896523396912116,0.0008722820665217714,2.514171717555341e-05,0.0032960939159253602
20.970464013232306,0.0003440222309821511,9.845931206701694e-06,0.001309615508890526
23.27202478960412,9.287829739494873e-05,2.6505902051826305e-06,0.0003546811727418532
25.826187606826746,1.68680017086216e-05,4.808276875449874e-07,6.44988601733906e-05
28.66067616948256,2.045524873750739e-06,5.828103435844395e-08,7.82570663319048e-06
31.80625692794119,1.6512091070921116e-07,4.703728731504634e-09,6.318506544049061e-07
35.297073027306574,8.861561967917166e-09,2.5241616567185007e-10,3.391255919236562e-08
39.17101490809261,3.160151431068301e-10,9.001218429573667e-12,1.2094099487127623e-09
43.47013158125035,7.48695375720849e-12,2.1325199447897166e-13,2.865345593529804e-11
48.241087041653735,1.1783266348485748e-13,3.3562278541551443e-15,4.5096212739700876e-13
53.535666774107185,1.2318981646744613e-15,3.508808426591872e-17,4.71465808806854e-15
59.411339849650396,8.555128446877184e-18,2.436750264294643e-19,3.2741784157849903e-17
65.93188271333541,3.946557748921259e-20,1.1240944488100417e-21,1.510408551158114e-19
73.16807143427206,1.209343334613713e-22,3.444561134438352e-24,4.628344279026212e-22
81.19844993184009,2.46161199252469e-25,7.0113856723839e-27,9.420971012691627e-25
90.11018251665037,3.328344361420091e-28,9.480090898866007e-30,1.2738090585799951e-27
100.0,2.9893413798774814e-31,8.514511924044431e-33,1.1440673664267529e-30
