tau,gamma,gamma_lo,gamma_hi
1e-07,3.8462830624004337e-05,-6.300152990371039e-06,0.0001520956338116611
1.1097524964120721e-07,0.0001966742779899712,-3.175991476981996e-05,0.0007748141004990813
1.2315506032928263e-07,0.0006785473636090222,-0.00010582988999527627,0.0026492408118758484
1.3667163564620074e-07,0.001613342708394146,-0.00023140002439415977,0.0061691070848602
1.5167168884709241e-07,0.002763770722487497,-0.0003259481560477301,0.010111343518228242
1.6831803533309585e-07,0.0036844472896105634,-0.00028207447361269095,0.012464444324202106
1.867913599020781e-07,0.004201532880946839,-0.00013257530614896792,0.01284740161365046
2.0729217795953698e-07,0.004406001691815846,-3.198331376424465e-05,0.012406812048291695
2.300430119772917e-07,0.004415257704985593,-5.019029141517397e-05,0.011958635808897696
2.5529080682395163e-07,0.004296895216181753,-0.00012525069472672657,0.011470550228254732
2.833096101839324e-07,0.004066620287413333,-0.00022384088958497407,0.010717119451422749
3.1440354715915e-07,0.0037287654628551286,-0.00042751248230280903,0.009760389739748934
3.489101213406774e-07,0.0032866772656228475,-0.0008204536389501023,0.008762559091955868
3.872038781812557e-07,0.002786234775948438,-0.00136103360899907,0.007855445904540155
4.2970047043208437e-07,0.002278443488445406,-0.0019444342274966791,0.007091999390759698
4.768611697714474e-07,0.001773698851549384,-0.002510989556834491,0.006413577629951971
5.291978735958437e-07,0.0012587176686267236,-0.0030450796642987085,0.005712256105033233
5.872786613189477e-07,0.0007279003693051629,-0.0035873909677711043,0.004962095748931923
6.517339604882421e-07,0.00020318727873110194,-0.004192432752890983,0.004242568479032038
7.232633896483533e-07,-0.0002932231081698103,-0.004826211699163787,0.0036072689153724222
8.026433522257174e-07,-0.0007352882170308119,-0.005337337743547045,0.0030636783161464955
8.907354638610439e-07,-0.001104445649019662,-0.005644835845856668,0.002603802445183716
9.884959046625586e-07,-0.0013969958087762721,-0.0058863369440798384,0.002241148294388532
1.096985797892384e-06,-0.0016134317219909074,-0.006206988320662684,0.0019850996363916735
1.217382727739662e-06,-0.001767207740122609,-0.006568308235088606,0.0018102182884181378
1.3509935211980278e-06,-0.0018650943827112029,-0.006809115735170797,0.0016797623178247067
1.499268432786047e-06,-0.0018988626565361742,-0.006832051553961739,0.001589518752864029
1.6638168860761274e-06,-0.0018440988432183744,-0.006605031635204396,0.0015717707951697739
1.8464249428955464e-06,-0.0016850563224092188,-0.006156649518186932,0.0016751057783019122
2.049074689815846e-06,-0.001424907591913055,-0.005580796853510643,0.001949388800560072
2.2739657523579273e-06,-0.0010769632938059741,-0.004972057910421343,0.002392197310707189
2.523539170434766e-06,-0.0006759081400709751,-0.0044344504558765435,0.0029206205525885
2.800503894183631e-06,-0.00024278902107644382,-0.004001865514462768,0.0034700802838737756
3.107866187782014e-06,0.00022540678572565825,-0.0036012826411963416,0.004065843964785488
3.4489622604057595e-06,0.0007384148283928493,-0.003144553834818734,0.004751217187808515
3.827494478516315e-06,0.0012903159653579635,-0.002655957364665175,0.00551923316912776
4.247571552536894e-06,0.0018579823904873844,-0.002209191782733587,0.006310486399480742
4.713753134116729e-06,0.0024286055460800964,-0.0017843577607716452,0.007080409381871268
5.2310993080562585e-06,0.0029921103619256735,-0.0012871642567804469,0.007787438061318715
5.805225516094895e-06,0.003559659222415088,-0.0006787946516138215,0.008420120754137854
6.44236350872137e-06,0.00415287138959667,-2.4991677825575536e-05,0.00900217281172264
7.149428986597577e-06,0.004776782074983968,0.0006005947078403697,0.009595169579206671
7.934096665797492e-06,0.005405792897769819,0.0011491078088569715,0.010317757307103772
8.804883581643465e-06,0.0060047098527291915,0.0016039839811441956,0.011220184584678215
9.771241535346501e-06,0.0065699377397668065,0.0019975508079963667,0.012201594499222904
1.0843659686896109e-05,0.0070961528852672385,0.002370314627420107,0.013064175727747741
1.2033778407775906e-05,0.0075870561075121095,0.0027452157713297037,0.013683792200016247
1.3354515629298974e-05,0.00803562319076608,0.0031188478118991084,0.014006980097562573
1.48202070579886e-05,0.00845762790316069,0.0034791564410989913,0.014172153816252635
1.6446761779946626e-05,0.00888038949937041,0.003798479589408931,0.014452890838653283
1.8251834943190462e-05,0.009323850917827404,0.00404538912568205,0.014974291519430022
2.0255019392306664e-05,0.009803586545341242,0.004202982632630898,0.01566267537484769
2.2478058335487252e-05,0.010330872010948141,0.004325536121769866,0.016443136379931274
2.4945081352303165e-05,0.010944130200969562,0.0045905052872288864,0.01739362983361473
2.7682866303920665e-05,0.011672543330376066,0.00512533800919269,0.018589206648918808
3.072112998861759e-05,0.012551941852553762,0.00583457984660282,0.020021807140482087
3.409285069746814e-05,0.013590135793088738,0.006503370199767784,0.02161433059150344
3.783462617131933e-05,0.014790485941019362,0.007012068803047466,0.023385458182628147
4.1987070844439056e-05,0.016141450807577264,0.007366293365477996,0.025370779303606424
4.659525668664687e-05,0.017700611713186216,0.007789205109635967,0.027570323315060576
5.170920242896755e-05,0.019567231295881636,0.008661871076076057,0.02993295505040814
5.7384416483024044e-05,0.021797167285415094,0.010135165963649667,0.03254564992103147
6.368249944718586e-05,0.024369220972438998,0.011980802342740252,0.03570766757721368
7.067181273927492e-05,0.02726786939541392,0.013945284402804839,0.03963351506484427
7.842822061337681e-05,0.03057811091987264,0.015982911587351063,0.044307777329716636
8.703591361485166e-05,0.034349669768393,0.01816729573639856,0.04953560625845973
9.658832241158708e-05,0.03858155749431457,0.020690006226511966,0.055187285125423674
0.00010718913192051276,0.04317075137636172,0.02374293694032062,0.06114149776074375
0.00011895340673703195,0.04813938568375235,0.027461020763090285,0.0676209574848955
0.0001320088400831418,0.05349807157080272,0.03181157904160949,0.07486985311053511
0.00014649713983072864,0.05927256324694559,0.03657890841735675,0.08279147207631032
0.0001625755666443795,0.06543497771235174,0.04129333758837239,0.09085870677893557
0.00018041864093920718,0.07205995061989165,0.04561316613074847,0.09898343099502112
0.00020022003718155845,0.07947415265388505,0.04958126990655326,0.10807883375147893
0.0002221946860939524,0.0881108725420681,0.05367761604141141,0.11940628059304276
0.0002465811075822604,0.09868151267129642,0.05912688968443377,0.1344355887195899
0.0002736439997074672,0.11184815876636887,0.0669345140888629,0.15406802551921633
0.00030367711180354605,0.1282621083253073,0.07688062624513019,0.17806865671657335
0.00033700643292719284,0.1484712522262372,0.08819585542576992,0.2055506745509665
0.0003739937302478798,0.17348969215794832,0.10164789650989646,0.23733479816608744
0.0004150404757850477,0.20424311475729587,0.11956005034762361,0.275290856960927
0.00046059220411451084,0.24106780398805303,0.1449004927915369,0.321105842860294
0.0005111433483440171,0.28280630495921516,0.18016550115830288,0.37495272684136866
0.0005672426068491978,0.3274883455299155,0.22493211266082166,0.43534731878479116
0.0006294988990221888,0.37215466662565233,0.2733830975430681,0.4983943921842487
0.0006985879746785249,0.4129687710533902,0.317860094013248,0.5588440940104805
0.0007752597488629464,0.4468849224136333,0.35248992975852506,0.6125764246480265
0.000860346441668451,0.4702175232807864,0.3726781984662569,0.6539289965674
0.0009547716114208065,0.48162246727056246,0.3793084525899278,0.6783535624043049
0.001059560179277617,0.4800631825401137,0.37508452175564566,0.6808555142832481
0.0011758495540521582,0.46571607115573166,0.3608762809822664,0.6615521359414616
0.0013049019780144017,0.4399726327029954,0.3357043302208167,0.6252756991240348
0.001448118227674533,0.40476270729857866,0.2995597520968145,0.5761174677339824
0.0016070528182616384,0.3643700116469036,0.25638992963240625,0.5187163955316869
0.0017834308769319094,0.3217369597038488,0.21044053343670943,0.45609472968236126
0.0019791668678535573,0.2793213431825184,0.16686652254768589,0.3929190318318178
0.002196385372416547,0.23869862818857596,0.12980102413096492,0.3332248722064331
0.002437444150122222,0.20195586342524804,0.10117777168226087,0.28064470925310964
0.002704959730463137,0.17102301045992208,0.08145144256824205,0.2376875725208272
0.0030018358135755923,0.14592031658270066,0.06884037139001918,0.20347557676768938
0.003331294787934677,0.1256416089507303,0.06040120644393336,0.17549768374898161
0.0036969127071950323,0.10907106286254577,0.053609060512800365,0.1520682798084009
0.00410265810582719,0.09566163280148836,0.04695492394746097,0.13323079453112438
0.004552935074866948,0.08489794958011058,0.04058551901877417,0.11863626160202406
0.00505263106533568,0.07638377349549068,0.036463339662298824,0.10716789552225063
0.005607169938205458,0.06954217437210171,0.035345467802268805,0.09755770292497426
0.006222570836730231,0.06371304168523206,0.034791570682712256,0.08924296499492453
0.006905513520162331,0.058281168097490406,0.03215791980588908,0.08185159528637737
0.007663410868007463,0.05315188583007435,0.028291425002346823,0.07504819100241128
0.008504489341802686,0.04846907867518277,0.02567000290278518,0.06851639289033201
0.009437878277775391,0.044263102808614674,0.02468069696787404,0.062312201119247776
0.010473708979594508,0.040468895381501155,0.023811302650302558,0.056826855757895145
0.011623224686798541,0.03698303092625172,0.02210840147647959,0.05219805929973973
0.01289890261253308,0.03380344201330732,0.019824741402044533,0.04833836761428621
0.014314589375234785,0.030880087455522953,0.017411474892523014,0.04495799836726934
0.015885651294280528,0.028203252391169005,0.01515552905501709,0.04177836852234883
0.01762914118095948,0.025713011465559654,0.013170926811037391,0.0385409625558726
0.01956398343517065,0.02339287864510339,0.011520242229612104,0.03526413264270271
0.021711179456945052,0.02121400382422339,0.010186642416295723,0.03204307553913251
0.02409403560239527,0.019181227149856095,0.009008370477299635,0.029030977377840023
0.026738416158399492,0.017311580233091782,0.007791429642611406,0.026373082574622092
0.029673024081888724,0.015598442834413124,0.006550212870057915,0.02409230037053979
0.032929712550971546,0.014038151994533328,0.005482576223363221,0.022139380764953
0.036543830709572546,0.012598378908961823,0.004628281957830412,0.020403960978780906
0.040554607358408275,0.01126710042459195,0.0038212920872292915,0.01879643829509782
0.04500557675700498,0.01002534867190989,0.0029402159737555488,0.0172425829284043
0.0499450511585514,0.00889617163210937,0.002074810800471068,0.01577359033638587
0.05542664520663107,0.007890500290848815,0.0013537126080798477,0.014411502267317907
0.06150985788580504,0.007008028048706018,0.0008025998275832363,0.013167193205582317
0.06826071834272393,0.006237502314538782,0.00039419600361425715,0.012032528038737557
0.0757525025877192,0.005573194638840913,0.00010220350017386409,0.01102627339060426
0.08406652885618333,0.00501509851778463,-9.541774006538258e-05,0.010182049649146764
0.09329304026284696,0.004544255376698059,-0.0002623067964181508,0.009488297511317205
0.10353218432956637,0.004134791484284568,-0.00048212552127511603,0.008900295634473364
0.11489510001873086,0.003769086003596204,-0.0007369292396785595,0.008360089984527396
0.1275051240713013,0.003456388541665999,-0.0008788573383585275,0.007835329288017513
0.1414991297434576,0.003196484230122655,-0.0008365954076473786,0.007314570024367578
0.15702901247293774,0.002973417949077672,-0.0007561067680561623,0.006849597565584087
0.17426333860096507,0.002764339341609849,-0.0008148358634624147,0.006493326455456848
0.19338917504552322,0.0025647794323314763,-0.001032629867725031,0.006271803605267947
0.21461411978584058,0.0023777793543494595,-0.0013247382643358824,0.006166942844255156
0.23816855519761607,0.0022060094723975326,-0.0015944583119408293,0.006104705054996071
0.2643081486974108,0.002051626462429145,-0.0017554146556621171,0.005983029033093341
0.29331662783900486,0.0019172332528036963,-0.0017883673649893902,0.005781039312609839
0.32550885998350565,0.001809619691013374,-0.0017415576723323872,0.005573753566561586
0.36123426997094304,0.0017274654432936952,-0.001683403675404705,0.005426171197070268
0.40088063288984643,0.0016618600337796558,-0.0016910929234682638,0.005365571681053506
0.4448782831127585,0.0015984401045251214,-0.0018007593024936496,0.0053658787630709755
0.4937047852839004,0.0015264569187675822,-0.0019714833032056568,0.005357360218315937
0.5478901179593945,0.0014374403444491171,-0.002131227676843002,0.005275093779632601
0.6080224261649427,0.0013355152487306708,-0.0022348774899333514,0.005151616940577647
0.67475440531107,0.001228402428645616,-0.002270453492061409,0.005050561752354122
0.748810385759003,0.001117961534413939,-0.0022926881525416405,0.004968201065993203
0.8309941949353403,0.0010019247051171448,-0.0023891139174154743,0.004842381276831901
0.9221978823334341,0.0008795443305235302,-0.0025692399797902403,0.004648324980776069
1.0234114021054528,0.0007575972294612861,-0.002748071847524171,0.00442598486859339
1.135733358343105,0.0006427812089215893,-0.002859013022858428,0.004200489165616376
1.2603829296797273,0.0005433739588644591,-0.0029144014629272083,0.003968707019230454
1.3987131026472386,0.00046336035690012253,-0.0029540899741018227,0.003728397703685757
1.552225357427048,0.0004001646713370705,-0.003023127531817796,0.0035294701374116817
1.7225859653987874,0.0003496322330780403,-0.00313706269891898,0.003421344587756246
1.9116440753857036,0.0003120147009667153,-0.003254665550163448,0.0033915681325372457
2.121451784910632,0.0002911166433457482,-0.003305035357444729,0.0033868712838153385
2.35428641432242,0.00028912864431563165,-0.0032782404069745326,0.0033807845538246094
2.612675225563332,0.00030752117780892264,-0.0032242816096024708,0.0033836450691146014
2.8994228538828812,0.0003507995223087008,-0.003192356906854023,0.0034302572773465003
3.2176417502507353,0.00042840495769480607,-0.0032067684096665095,0.0035743133961691612
3.5707859649004625,0.000553277348511874,-0.0032208162716066326,0.0038362763953622286
3.9626886387014784,0.000737179107227164,-0.0031072898758728405,0.004175919196267439
4.397603609302721,0.0009802514586037924,-0.0027820125364855755,0.004524800498797798
4.880251583654434,0.0012552030385098692,-0.002359149878726992,0.004831393722570001
5.415871378079476,0.0015241099842769436,-0.002015201750974493,0.0050776889050722
6.010276782070388,0.0017743914554118991,-0.0017951281503054645,0.005349121173269301
6.669919663030129,0.002006532643314999,-0.0016433133164977303,0.005759803210592188
7.401959996915652,0.0022247315759965224,-0.001510531618467224,0.006291747442654694
8.214343584919439,0.0024249385055193063,-0.0013827614222329389,0.006799530296297838
9.115888299750837,0.002591581591076824,-0.0012640154907259298,0.007236566132351866
10.11637979766207,0.0026987177758757692,-0.0011733707305033488,0.007728751637752297
11.226677735108158,0.002725665015744835,-0.001131664265816153,0.008367801736326355
12.458833642950081,0.0026756816655060613,-0.001151786235113588,0.00905376143037962
13.826221737646593,0.00252074709662574,-0.0012009267571032349,0.009417071719766556
15.343684089300131,0.002176531488757237,-0.00115976667308791,0.008809401187918937
17.02769172225898,0.0015808415953637146,-0.0009109268110886881,0.00673164382442977
18.896523396912116,0.0008763383848721638,-0.0005263254083096707,0.003830425831949207
20.970464013232306,0.0003455101617856984,-0.00021147141054637383,0.0015281584485452976
23.27202478960412,9.32651276976479e-05,-5.7544746417095284e-05,0.00041457811632795695
25.826187606826746,1.693707685176648e-05,-1.0485029196224669e-05,7.544413349018018e-05
28.66067616948256,2.0538417877600696e-06,-1.2731745914735511e-06,9.15632557970633e-06
31.80625692794119,1.6579030668786908e-07,-1.0282995676116259e-07,7.393711481084183e-07
35.297073027306574,8.897443512216701e-09,-5.519793684659018e-09,3.968524272105861e-08
39.17101490809261,3.1729410504760816e-10,-1.9686065531795711e-10,1.4153057764014628e-09
43.47013158125035,7.51724864396384e-12,-4.664141903742426e-12,3.3531817893420094e-11
48.241087041653735,1.1830941846536063e-13,-7.340719037894636e-14,5.277418237237044e-13
53.535666774107185,1.2368823057935003e-15,-7.674503116566174e-16,5.5173710764167845e-15
59.411339849650396,8.589741218818378e-18,-5.329703210292705e-18,3.831638727948068e-17
65.93188271333541,3.96252484767553e-20,-2.4586424242925745e-20,1.7675704745967015e-19
73.16807143427206,1.2142361207682845e-22,-7.534018694807894e-23,5.416365904608476e-22
81.19844993184009,2.4715712243607402e-25,-1.5335457817201648e-25,1.1024985358384193e-24
90.11018251665037,3.3418102291528966e-28,-2.073506627653941e-28,1.49068778513681e-27
100.0,3.0014357023228076e-31,-1.8623131053984502e-31,1.338856280288907e-30
