tau,gamma,gamma_lo,gamma_hi
1e-07,1.7323466648425803e-05,-2.3036067301929916e-05,0.00010107057755279035
1.1097524964120721e-07,8.881258173301041e-05,-0.00011755246211117298,0.0005156396056780531
1.2315506032928263e-07,0.00030833131185320484,-0.0004035886589085684,0.0017693520271760473
1.3667163564620074e-07,0.0007436416225509901,-0.0009487479345813931,0.004154375519226165
1.5167168884709241e-07,0.0013122624207186466,-0.0015861545365628146,0.006930729866988025
1.6831803533309585e-07,0.0018422770297105635,-0.0020217116280014874,0.008818651285218847
1.867913599020781e-07,0.002256241846434804,-0.0021569053749000366,0.009462509924079788
2.0729217795953698e-07,0.0025686319727595015,-0.0020820560922967515,0.009401519994706465
2.300430119772917e-07,0.0028155829348063743,-0.0018847304240077964,0.00914142523484597
2.5529080682395163e-07,0.003025752127653529,-0.0015999282238380323,0.008888609939696255
2.833096101839324e-07,0.003210250655825374,-0.0012477202368910607,0.008694110787638334
3.1440354715915e-07,0.00337137725179393,-0.0008841220612721379,0.00860063163343139
3.489101213406774e-07,0.0035034036833011834,-0.0005720952887729857,0.008604888892178062
3.872038781812557e-07,0.0036136610853424013,-0.00035667665292621646,0.008633289188411108
4.2970047043208437e-07,0.0037053681781284735,-0.0002582529402807282,0.008587323644588056
4.768611697714474e-07,0.003779694357582946,-0.00024013741969045721,0.008478680116762798
5.291978735958437e-07,0.003831269342244241,-0.00023628903150229113,0.008386497878823302
5.872786613189477e-07,0.003864649748662816,-0.00021799834672121926,0.0083572926510626
6.517339604882421e-07,0.0038938127107266966,-0.0002001526919208897,0.008386445638988556
7.232633896483533e-07,0.003922486257598592,-0.00020476038411876166,0.008431367501481145
8.026433522257174e-07,0.003946942336497407,-0.00024381659660788123,0.008442065821339545
8.907354638610439e-07,0.003961931073351128,-0.00030894856157801876,0.00839857175776095
9.884959046625586e-07,0.003983104433574661,-0.0003619249102778735,0.008375171537649353
1.096985797892384e-06,0.004020703309827388,-0.0003634625489301995,0.008430492032761099
1.217382727739662e-06,0.0040749372098313665,-0.00030979300893613985,0.008537260873873678
1.3509935211980278e-06,0.004133905167272833,-0.0002205466316528124,0.00861014045707772
1.499268432786047e-06,0.0041979867647427465,-0.00012434002759215536,0.008621632748930233
1.6638168860761274e-06,0.004274806726795094,-4.569351254559471e-05,0.008602111577698442
1.8464249428955464e-06,0.004374895326613026,3.0049077954987243e-05,0.00862886395828785
2.049074689815846e-06,0.004510525929896781,0.00014946466143228576,0.008809715941641426
2.2739657523579273e-06,0.004686204723511574,0.00032148813758309355,0.009164634513265765
2.523539170434766e-06,0.004903760905761978,0.0004870555498272786,0.009595681919140515
2.800503894183631e-06,0.005159902273498878,0.0006031785063632605,0.010007069917643184
3.107866187782014e-06,0.005462230208004341,0.0007056620136675223,0.010429521353971561
3.4489622604057595e-06,0.005811454448537451,0.0008384312647448246,0.010912797136695488
3.827494478516315e-06,0.006210706260612894,0.0009735848245777306,0.011461240289772766
4.247571552536894e-06,0.006654411913694061,0.0010644655800075393,0.01203369664231688
4.713753134116729e-06,0.007152433313485783,0.0011789114432091373,0.012647154215663835
5.2310993080562585e-06,0.007713803058865948,0.0014749231899158475,0.013350868169000066
5.805225516094895e-06,0.0083371056190559,0.0020211063020542245,0.014157952548824508
6.44236350872137e-06,0.009002581079477396,0.002742811638285023,0.015033392921987392
7.149428986597577e-06,0.00968886420981825,0.0035359096420097603,0.015964874375377736
7.934096665797492e-06,0.010395056690144178,0.004304847258033777,0.017024878336784215
8.804883581643465e-06,0.011112086792190222,0.004983330499572663,0.018246367655662718
9.771241535346501e-06,0.011847192477523555,0.005570873838189807,0.01957635681080887
1.0843659686896109e-05,0.012584880878471677,0.006085943409637031,0.020862062475624638
1.2033778407775906e-05,0.01332109739032432,0.0065693697647988235,0.02197443550748632
1.3354515629298974e-05,0.014031174755702392,0.007053175903057366,0.022784722775873165
1.48202070579886e-05,0.014711076353446106,0.0075571647628607285,0.023324230530555115
1.6446761779946626e-05,0.015356712640230025,0.008074788714350902,0.023744531556185517
1.8251834943190462e-05,0.015955104648614174,0.00857890421323929,0.024156852405016967
2.0255019392306664e-05,0.01649651044500954,0.00903096044857814,0.02462404173027685
2.2478058335487252e-05,0.01696976189782013,0.009415277130184042,0.025155150026541735
2.4945081352303165e-05,0.017423239522824378,0.009788335433309052,0.025796130063566798
2.7682866303920665e-05,0.017880232587392828,0.010179442133740762,0.026552170312926653
3.072112998861759e-05,0.018363302047639255,0.010554745212294162,0.027444856154179235
3.409285069746814e-05,0.01885486957639845,0.010852024478830281,0.02844027909271007
3.783462617131933e-05,0.019366170714474513,0.011123100282593038,0.02951596178392522
4.1987070844439056e-05,0.01990249700453819,0.011460006602278012,0.03060489461536053
4.659525668664687e-05,0.020479327320948627,0.011837490865398226,0.031656375983623496
5.170920242896755e-05,0.02111736535599228,0.012127080127681383,0.03263899970088189
5.7384416483024044e-05,0.021832164686116907,0.01234615349983619,0.03358595199824888
6.368249944718586e-05,0.022662919852141455,0.012750114556645355,0.034661376526639115
7.067181273927492e-05,0.023610411216464986,0.0134449212339502,0.03593983428561977
7.842822061337681e-05,0.02467745391866982,0.014163508308128283,0.03738564049511383
8.703591361485166e-05,0.025824056753483347,0.014596083575517888,0.038831642314222974
9.658832241158708e-05,0.02706415313367368,0.014869831571674801,0.04018479785447193
0.00010718913192051276,0.028403207660956716,0.015330296561842925,0.04139670111410711
0.00011895340673703195,0.02992218420542966,0.016207182481950504,0.042724000857577334
0.0001320088400831418,0.03170875278221857,0.017557179928704657,0.04457244014003589
0.00014649713983072864,0.03381656745681112,0.01931235704443724,0.04713729413191912
0.0001625755666443795,0.03623863211988263,0.021306299028191162,0.050343476004232765
0.00018041864093920718,0.03894266700033195,0.023453061559477045,0.05409357277876638
0.00020022003718155845,0.04191836987057966,0.025793318219719193,0.05840274919679866
0.0002221946860939524,0.04509821872832687,0.02823860547962787,0.06315597528723868
0.0002465811075822604,0.04844518289115531,0.030470760521610296,0.06811172011552374
0.0002736439997074672,0.05185493046107715,0.03221293268883833,0.07300025964475369
0.00030367711180354605,0.05536242346459328,0.03385907678722428,0.07812713033367703
0.00033700643292719284,0.058954460384523816,0.0360392811424922,0.08382233096070492
0.0003739937302478798,0.06264836823445954,0.03888847614705837,0.08988711498465937
0.0004150404757850477,0.06637908061369353,0.04200094777093726,0.09551599937095867
0.00046059220411451084,0.07009685425257864,0.04504646498239212,0.10029028256363667
0.0005111433483440171,0.07379670490644315,0.047937817475368426,0.1044501171353195
0.0005672426068491978,0.07748067443505315,0.05073109564322054,0.10838917309075129
0.0006294988990221888,0.08132023195069471,0.053642375559468776,0.11269435996631998
0.0006985879746785249,0.08531373173554206,0.056593024237498235,0.11749282721373948
0.0007752597488629464,0.08941433923719719,0.059120164594790525,0.12249971666458823
0.000860346441668451,0.09347570513070902,0.06081984405103188,0.12738554513487443
0.0009547716114208065,0.09783939370320371,0.06250884505262072,0.133188230251361
0.001059560179277617,0.10294416659429273,0.0653973034630979,0.14146667862274584
0.0011758495540521582,0.10899270646689471,0.06928739119447841,0.15272511318248974
0.0013049019780144017,0.11587176124038585,0.07266234608733939,0.1660464037453002
0.001448118227674533,0.12366807827991713,0.07502777605725958,0.18017208438813112
0.0016070528182616384,0.13288792291418225,0.07769506736483713,0.1939923786475022
0.0017834308769319094,0.1439831364747785,0.08183568970528857,0.20753656622991734
0.0019791668678535573,0.15737653651675118,0.08755959408680332,0.2232406944553929
0.002196385372416547,0.17332758363362014,0.09446829558665519,0.24369564762776164
0.002437444150122222,0.19245008255991627,0.102712124565629,0.2704780164388609
0.002704959730463137,0.21524905291726282,0.11341434889984776,0.30403213401249307
0.0030018358135755923,0.24246394052034284,0.12973146006305702,0.34483574049969934
0.003331294787934677,0.2743018536143244,0.15506337610932402,0.3928649655771985
0.0036969127071950323,0.3104495116768526,0.18838917819166406,0.44847751800570873
0.00410265810582719,0.34924331505868933,0.2237402626182422,0.5107097994601933
0.004552935074866948,0.3884837247255696,0.25739137675334267,0.5759481322197328
0.00505263106533568,0.4254280622934565,0.28965748780646006,0.6380320463969196
0.005607169938205458,0.45735337948538757,0.3195386756950764,0.6967845578887583
0.006222570836730231,0.4831708522344066,0.3411905506674218,0.7646213759365276
0.006905513520162331,0.49958744364409713,0.3446020678241217,0.8437617895040502
0.007663410868007463,0.5008127382724641,0.32059033781713,0.9029282950852747
0.008504489341802686,0.4792242499690153,0.26357109428340364,0.8968024006209947
0.009437878277775391,0.4338685244209834,0.18342246051692132,0.820319423476956
0.010473708979594508,0.3698620927513227,0.1023711020788351,0.7025817233709531
0.011623224686798541,0.2941780767120088,0.03501010814862377,0.5694861437418828
0.01289890261253308,0.2170439357159637,-0.013214623757685472,0.439066870563597
0.014314589375234785,0.14675896861344762,-0.04200487797322823,0.32145680077027794
0.015885651294280528,0.09039636053109555,-0.05408530887542199,0.22488584539064072
0.01762914118095948,0.0516165293528969,-0.05303268000529331,0.1533809205239892
0.01956398343517065,0.02814883001193736,-0.04435613535274488,0.10387448705775927
0.021711179456945052,0.015594862284461868,-0.0333882391804784,0.0709376641215102
0.02409403560239527,0.009557015631247008,-0.023511282252222012,0.049403015312575106
0.026738416158399492,0.0065571134788720556,-0.016555848174595926,0.035454465082258024
0.029673024081888724,0.004772171792238275,-0.012464276194155289,0.026509541602820735
0.032929712550971546,0.003607181186618671,-0.010053688125636891,0.02090005585003119
0.036543830709572546,0.0028558171173594846,-0.00842845118518791,0.017370795003171194
0.040554607358408275,0.0023481978587534093,-0.007349764837602903,0.014850035280692456
0.04500557675700498,0.001956231460657381,-0.006737802043030867,0.012699403513077964
0.0499450511585514,0.0016253036514823453,-0.006378349073462719,0.010875586420242112
0.05542664520663107,0.0013353875835861956,-0.006073134563154967,0.009487949522645284
0.06150985788580504,0.0010766272955995708,-0.005830096987924102,0.008483935909070674
0.06826071834272393,0.0008424753947112754,-0.005729901320187044,0.0077145741660194994
0.0757525025877192,0.0006304249179311356,-0.0057489687922570275,0.007076189264110572
0.08406652885618333,0.00044401300055867343,-0.005772756872237281,0.006518506879404701
0.09329304026284696,0.00028670913626497,-0.005721516826306213,0.006015307312662139
0.10353218432956637,0.0001641255388723643,-0.005574591388955177,0.005565408185297589
0.11489510001873086,7.580100611671156e-05,-0.005359566977883338,0.005189308555082945
0.1275051240713013,1.3505602239140266e-05,-0.005157546177514606,0.004941770014822518
0.1414991297434576,-3.6360335034589235e-05,-0.005012875043773776,0.004832717881520608
0.15702901247293774,-9.212018589220551e-05,-0.0049073975680349186,0.0047919855134533835
0.17426333860096507,-0.0001644928316091408,-0.004807566947837596,0.004729471205863763
0.19338917504552322,-0.0002427645146799195,-0.004737761540915384,0.004619766210959398
0.21461411978584058,-0.0003092673463385017,-0.004734415256372105,0.004469590700375402
0.23816855519761607,-0.0003667280764705796,-0.004784219993990319,0.0042977580686258555
0.2643081486974108,-0.00043060997118940785,-0.004831930079127985,0.00412470210788103
0.29331662783900486,-0.0005042170673746277,-0.0048521917470759155,0.003969710824654008
0.32550885998350565,-0.0005736993077717884,-0.004862723159017443,0.003852992606534902
0.36123426997094304,-0.0006276580389620982,-0.004885687699063633,0.0037647874723462003
0.40088063288984643,-0.0006651049028428927,-0.00494217916740229,0.003666426092197995
0.4448782831127585,-0.0006869147011040499,-0.005029867552854948,0.0035244612945148344
0.4937047852839004,-0.0006939804129928546,-0.005127614788868325,0.0033595610413424903
0.5478901179593945,-0.0006858023144306391,-0.0052017244425408395,0.0032185928829030624
0.6080224261649427,-0.000666359656011688,-0.005244619695878825,0.003165906782697795
0.67475440531107,-0.0006399220425119945,-0.0052493473681178085,0.0032486314779328544
0.748810385759003,-0.0006075710028925852,-0.0052022934340146204,0.0034313317298089083
0.8309941949353403,-0.0005685463297311986,-0.005084954146543175,0.003609536838528408
0.9221978823334341,-0.0005254316642352247,-0.004911305915222216,0.0037093024720938443
1.0234114021054528,-0.0004852370089234891,-0.004741200991518255,0.0037165512660476087
1.135733358343105,-0.00044598789603925756,-0.004610903192114178,0.0036743975693316598
1.2603829296797273,-0.0003940425586991136,-0.004520036151568813,0.0036910975031144845
1.3987131026472386,-0.0003218854622737317,-0.004445086814093599,0.0038193528197825307
1.552225357427048,-0.00024736845837251354,-0.004371642129994172,0.003971723765750797
1.7225859653987874,-0.0001931189898822788,-0.004286912243827027,0.004024387831466317
1.9116440753857036,-0.00015877985944703321,-0.004197494183550369,0.003985023113620108
2.121451784910632,-0.00012929370149311126,-0.00411841125226712,0.003936677940017892
2.35428641432242,-9.510940489319177e-05,-0.004070441720357193,0.0039184061453690616
2.612675225563332,-5.644539696205561e-05,-0.00407384396226643,0.003911571947233515
2.8994228538828812,-1.958027731807963e-05,-0.0041225768057269515,0.0038876250198996085
3.2176417502507353,5.16941446691165e-06,-0.004181754785305502,0.0038328832992986107
3.5707859649004625,1.4820858173175482e-05,-0.004208120555219559,0.003741116886744961
3.9626886387014784,1.9938386095435657e-05,-0.004175715240163265,0.0036274671518955947
4.397603609302721,3.1097621137431444e-05,-0.004070315464354708,0.0035071245306420888
4.880251583654434,4.706872724666142e-05,-0.003919324937862603,0.003404110159005256
5.415871378079476,6.196237263824848e-05,-0.003757765378088638,0.0033430096976269598
6.010276782070388,7.660390575449681e-05,-0.0036095069504692013,0.0033530385144058413
6.669919663030129,9.635520168292428e-05,-0.0034880106061156574,0.003459223187272866
7.401959996915652,0.00012256781211336025,-0.003407489952643002,0.0036597612323816314
8.214343584919439,0.00015140275967942042,-0.003386952256596894,0.00392501764850645
9.115888299750837,0.00018041018287590354,-0.0034282410106635974,0.004227837976462757
10.11637979766207,0.000208840114346206,-0.0035141023731966336,0.004542431495173474
11.226677735108158,0.00022979741045275927,-0.0036199402363240292,0.00480248947161371
12.458833642950081,0.00022604974848201164,-0.0037159358633704442,0.004876701619700756
13.826221737646593,0.00018541520802548142,-0.003699974340547725,0.004600783786703615
15.343684089300131,0.00012345829279682849,-0.0033591120229837473,0.0038854725160947135
17.02769172225898,6.774831155838009e-05,-0.0025233915442313868,0.0027561589068009723
18.896523396912116,3.055922335377798e-05,-0.0014239762117706197,0.001505383773333236
20.970464013232306,1.0738780739398463e-05,-0.0005660215526264584,0.000589210554283539
23.27202478960412,2.7456071946785717e-06,-0.0001533213771774132,0.00015853957163152423
25.826187606826746,4.870270076363766e-07,-2.7883491843010923e-05,2.8752409045754627e-05
28.66067616948256,5.848351160070652e-08,-3.3832262989290536e-06,3.4846860905444474e-06
31.80625692794119,4.702038787721263e-09,-2.7316618009959447e-07,2.8122795516451845e-07
35.297073027306574,2.5193296409957017e-10,-1.466138778187965e-08,1.5091246529308462e-08
39.17101490809261,8.978317038960608e-12,-5.228641584328348e-10,5.381531467964604e-10
43.47013158125035,2.1265503574437623e-13,-1.2387757011569563e-11,1.274959297656415e-11
48.241087041653735,3.3464862105553273e-15,-1.9496464914959966e-13,2.0065690225384912e-13
53.535666774107185,3.498477276850828e-17,-2.0382904000508797e-15,2.097790427972211e-15
59.411339849650396,2.4295344101636177e-19,-1.415527201844216e-17,1.456845085850985e-17
65.93188271333541,1.1207580161112304e-21,-6.529957022484886e-20,6.720554664578707e-20
73.16807143427206,3.434327764070358e-24,-2.0009744684610504e-22,2.059378607632664e-22
81.19844993184009,6.990547839260149e-27,-4.0729732689187177e-25,4.191854027352418e-25
90.11018251665037,9.451911772772427e-30,-5.507065296524893e-28,5.667803605233078e-28
100.0,8.48920137209166e-33,-4.946152369983707e-31,5.090518834195072e-31
