tau,gamma,gamma_lo,gamma_hi
1e-07,0.000526752899108493,5.183812340052512e-05,0.0016922840214919853
1.1097524964120721e-07,0.0026899257336443203,0.0002637380254731304,0.008652718255959944
1.2315506032928263e-07,0.009251405697743343,0.0008989466845250411,0.029848430041327954
1.3667163564620074e-07,0.021840627069067767,0.002077547654689722,0.07094598021137301
1.5167168884709241e-07,0.036884120403364216,0.0033456889715330917,0.12146249494103076
1.6831803533309585e-07,0.048100744838573704,0.003969377461107691,0.16180902536832475
1.867913599020781e-07,0.0538464789678897,0.003801171201372573,0.18456350773564792
2.0729217795953698e-07,0.0568649653539181,0.0032612078247855683,0.19421254155096454
2.300430119772917e-07,0.05943106935763803,0.0027045556875013267,0.19648902887465797
2.5529080682395163e-07,0.06188662173588532,0.002247955949578779,0.19505671546474115
2.833096101839324e-07,0.06396875275595768,0.0018865520741645977,0.19159009289750742
3.1440354715915e-07,0.06589871636108814,0.0015962989230015067,0.18741596078644335
3.489101213406774e-07,0.06788382314246179,0.0014040423114678989,0.18323741198517676
3.872038781812557e-07,0.06993379244662415,0.0014751443960234352,0.17982699170591623
4.2970047043208437e-07,0.07186611373425243,0.00216922825988343,0.17763819982795637
4.768611697714474e-07,0.07385685659038171,0.004022898018269958,0.1770086399726782
5.291978735958437e-07,0.07608484831117296,0.007310377743303949,0.17780639105249907
5.872786613189477e-07,0.07818202624227026,0.01092311444039557,0.17912098412654381
6.517339604882421e-07,0.07923525213207316,0.012603235844295964,0.17947471516270194
7.232633896483533e-07,0.07878412305176802,0.011804968437718635,0.17828747741337728
8.026433522257174e-07,0.07735897850159511,0.010620184063935329,0.17680176038427142
8.907354638610439e-07,0.0754676225285059,0.010717123661638212,0.1761350835672396
9.884959046625586e-07,0.0734271754155544,0.011437946776380652,0.17678792113960487
1.096985797892384e-06,0.07129114693431247,0.01143970039927507,0.17796111755465022
1.217382727739662e-06,0.06930011971996397,0.010547547359342616,0.17778127573415003
1.3509935211980278e-06,0.06773521865890639,0.009401827370783725,0.17415255259146456
1.499268432786047e-06,0.06691770526496159,0.008708796239246641,0.16777248354930416
1.6638168860761274e-06,0.06706919813189234,0.008989179670067456,0.1611902258577327
1.8464249428955464e-06,0.06799021682645383,0.01014914094389278,0.15552858033551828
2.049074689815846e-06,0.06912776322591384,0.01149495410780838,0.15040645911934164
2.2739657523579273e-06,0.07020053344086577,0.012477955089938611,0.1459505588279979
2.523539170434766e-06,0.07159164939940209,0.013036757869120395,0.14418422267539271
2.800503894183631e-06,0.07353878880831678,0.013491473511720111,0.14637389807393975
3.107866187782014e-06,0.07584890537996876,0.014563643486771076,0.15139458486964516
3.4489622604057595e-06,0.07811735107362124,0.01678476380123309,0.15701386818484211
3.827494478516315e-06,0.08050513325212931,0.019758879003420673,0.16220712680573374
4.247571552536894e-06,0.08333329390566019,0.022575165143028438,0.1667883038344082
4.713753134116729e-06,0.08671584068249925,0.02486786518111899,0.17169292147335655
5.2310993080562585e-06,0.09041244227370795,0.026707546162420166,0.17834125450502888
5.805225516094895e-06,0.09412105161843488,0.028074752694187504,0.18731348025273592
6.44236350872137e-06,0.09754803781597018,0.028764037969104577,0.19782739104653216
7.149428986597577e-06,0.10031767936258303,0.028873072801804036,0.2077080703210433
7.934096665797492e-06,0.10221121662770971,0.02913785690126013,0.21384904780074582
8.804883581643465e-06,0.10302137099617818,0.02990430678191633,0.21425721250194515
9.771241535346501e-06,0.10313723644594514,0.030394076674241256,0.21154700952429117
1.0843659686896109e-05,0.10296675982316798,0.029687957930693305,0.20936467074518442
1.2033778407775906e-05,0.1029337936790897,0.02843682366305431,0.20923187129508897
1.3354515629298974e-05,0.10323412405105624,0.028132245070391436,0.2109869932915431
1.48202070579886e-05,0.10383034510135442,0.02913304310260704,0.21515013793645962
1.6446761779946626e-05,0.10444772141686368,0.030558893719067316,0.22256312027277442
1.8251834943190462e-05,0.10471388670460138,0.03159288463981252,0.23132401878007564
2.0255019392306664e-05,0.1044333765527403,0.03201193861673039,0.2362610019306301
2.2478058335487252e-05,0.10366115624400617,0.032161166672449414,0.234040413475166
2.4945081352303165e-05,0.10324589193388119,0.033044141492238104,0.2274388745155667
2.7682866303920665e-05,0.10386652875043845,0.035238753933504306,0.22040854992997724
3.072112998861759e-05,0.10564913384214303,0.03792027496982576,0.2152920286181525
3.409285069746814e-05,0.10810144231317874,0.039681856549100954,0.21252991933240392
3.783462617131933e-05,0.11060530489438529,0.040197757129504144,0.21149932115976375
4.1987070844439056e-05,0.11248154817098632,0.04001597709871275,0.21116226408103242
4.659525668664687e-05,0.11377504666127909,0.0398917369856838,0.21173078381874538
5.170920242896755e-05,0.11519176499938752,0.04047236014957772,0.21465838879801413
5.7384416483024044e-05,0.11706684256852344,0.04161277427016923,0.22040915999676677
6.368249944718586e-05,0.11925758085897967,0.04231360345863141,0.22796877778800428
7.067181273927492e-05,0.12149761442779722,0.04199420330603468,0.2359191524916137
7.842822061337681e-05,0.1241404943243527,0.04159377358610019,0.2439139559919329
8.703591361485166e-05,0.12738857112692215,0.04230517509655378,0.251522008263108
9.658832241158708e-05,0.13113868733295164,0.044385790563929516,0.25847586293918
0.00010718913192051276,0.13486153260840086,0.047300669382983954,0.26393486725500925
0.00011895340673703195,0.13837238251046005,0.050305831401645275,0.26741981958417876
0.0001320088400831418,0.14159748598529254,0.05280970703089393,0.26837927301251185
0.00014649713983072864,0.14447552558027224,0.05546943114372519,0.26645193799225303
0.0001625755666443795,0.14695344454400835,0.0600129229885993,0.2617923106643067
0.00018041864093920718,0.14894347100638122,0.0667918743872498,0.25484081029296235
0.00020022003718155845,0.15072561642703597,0.07367687160441867,0.2474036374426341
0.0002221946860939524,0.15236520016355803,0.07837673081089046,0.24104561206243724
0.0002465811075822604,0.15406537436370854,0.08057506907461524,0.23731943721381013
0.0002736439997074672,0.1557220624178421,0.08100875950734451,0.23669463812668776
0.00030367711180354605,0.15740019003768618,0.08120628286940533,0.2382441445556207
0.00033700643292719284,0.15900472730996937,0.08247187402804242,0.2401609054804503
0.0003739937302478798,0.16061002834634985,0.08451664872812914,0.24204369962807076
0.0004150404757850477,0.16229599171505607,0.08593629204816487,0.24436029984536523
0.00046059220411451084,0.1639846820440197,0.08674283773205173,0.24639626959556807
0.0005111433483440171,0.16556314960582827,0.0888703228881119,0.24616254683152314
0.0005672426068491978,0.16673620751361556,0.09318301518023694,0.24262887495299473
0.0006294988990221888,0.16755651821669787,0.09807490584683576,0.23805784227119367
0.0006985879746785249,0.16798744862755344,0.10143974427862466,0.2349533173431272
0.0007752597488629464,0.1685050017213006,0.10286700547732143,0.23489685527922735
0.000860346441668451,0.1691704547629613,0.10248592144767557,0.23797767433129352
0.0009547716114208065,0.16946434861848053,0.10033892133869864,0.24305606178927103
0.001059560179277617,0.1685571607028706,0.09666631649633527,0.24795760609002315
0.0011758495540521582,0.1671002601134501,0.09356721263509242,0.25126662865125665
0.0013049019780144017,0.16709267111693565,0.09464358518589494,0.2525454127787095
0.001448118227674533,0.1694780081450895,0.10095655903182722,0.25265319041465295
0.0016070528182616384,0.1736555725411332,0.1098899953878099,0.2539701826026283
0.0017834308769319094,0.178456264044953,0.11863864260365328,0.25690803521980143
0.0019791668678535573,0.18326605130828272,0.1263273192429519,0.25900030419040476
0.002196385372416547,0.18767642447031485,0.13276722497456994,0.2581474737055774
0.002437444150122222,0.19224463545488144,0.13796118066867932,0.25775866176232215
0.002704959730463137,0.19749705093804257,0.14099781376147064,0.2628948594869904
0.0030018358135755923,0.2037276261757373,0.14004884802218848,0.27486260627641956
0.003331294787934677,0.21067178389142815,0.13375684926025028,0.2909147354409614
0.0036969127071950323,0.21802607294247217,0.12604737570302016,0.30679506429344267
0.00410265810582719,0.2255362931695708,0.12583691616784604,0.31777143381575984
0.004552935074866948,0.23322986804444254,0.13700391888073005,0.3227098569058453
0.00505263106533568,0.2418805156472333,0.15466547406189338,0.32640813228279264
0.005607169938205458,0.25196386700293466,0.17271815808481913,0.33440116633356004
0.006222570836730231,0.2638354834570587,0.18884303030764063,0.35078882911995757
0.006905513520162331,0.2769452857923446,0.20281409927091523,0.3751722069211469
0.007663410868007463,0.29034818271853247,0.21592428150299017,0.39998302812313163
0.008504489341802686,0.30224183542262173,0.22887003982823323,0.41471835568069276
0.009437878277775391,0.3115221748895732,0.24051440967276794,0.4179247286911153
0.010473708979594508,0.3171985982817749,0.2480746299452115,0.41486657714122227
0.011623224686798541,0.31875929473736037,0.25058838980575926,0.40894631626087363
0.01289890261253308,0.31628149308471903,0.24930460390733264,0.4002476408226479
0.014314589375234785,0.3095160595943081,0.24413576802517353,0.3879382418317367
0.015885651294280528,0.2988371676302169,0.23333554170891013,0.37320762306358374
0.01762914118095948,0.28428614098539956,0.21603674616064994,0.35644185422734476
0.01956398343517065,0.267058115990034,0.19638161728444636,0.3373718840703903
0.021711179456945052,0.24794143996443618,0.1785446004239442,0.31515701962192616
0.02409403560239527,0.22734519933690706,0.16153057654728736,0.29109405848330827
0.026738416158399492,0.20548623969872606,0.14183310174983738,0.2672358227382231
0.029673024081888724,0.1834619402539088,0.12017362547656568,0.243979216262332
0.032929712550971546,0.1634507070577236,0.10160344763796894,0.2207477966291277
0.036543830709572546,0.14636279327803967,0.0886846429878097,0.19788274271858217
0.040554607358408275,0.13202758533980816,0.08022006977334525,0.17796113750237808
0.04500557675700498,0.11996124476590503,0.07435184251018141,0.16235131548443602
0.0499450511585514,0.11037027751174361,0.07038043527082107,0.15030605476159054
0.05542664520663107,0.10324368387043303,0.06777355698987453,0.14055032670480566
0.06150985788580504,0.09786548569421329,0.0653477882454216,0.1331817318741561
0.06826071834272393,0.09307335055412616,0.06178090836203155,0.12819797442428163
0.0757525025877192,0.08809643248246585,0.05708569247832941,0.12361895848734396
0.08406652885618333,0.08254665732829257,0.052188063921620974,0.11658781512660105
0.09329304026284696,0.07657469688943236,0.04778725256157699,0.10731893223123659
0.10353218432956637,0.07070144890461424,0.04402520397199562,0.098937966062797
0.11489510001873086,0.06463860195307924,0.03988532493303864,0.0924061365772012
0.1275051240713013,0.05735762164331848,0.033458736049054416,0.08540656339602207
0.1414991297434576,0.0484933555172838,0.024204939712876634,0.07609929233436535
0.15702901247293774,0.03979456933873923,0.014902567534012737,0.06612810627387544
0.17426333860096507,0.03336005256898214,0.008860831241121,0.05803478400288145
0.19338917504552322,0.029999067109608854,0.007072497562018623,0.05300079070407047
0.21461411978584058,0.029450355294167643,0.008789058481181975,0.050965351394214174
0.23816855519761607,0.03042275933501578,0.01192868286004157,0.050769652065740974
0.2643081486974108,0.0311425182789866,0.013936607057393559,0.05075362224341899
0.29331662783900486,0.030839263363264185,0.014057239045270764,0.050176263506223714
0.32550885998350565,0.029788323030299244,0.013314639470878053,0.04924789302193425
0.36123426997094304,0.028154549046117434,0.012354319158581614,0.04791977506160356
0.40088063288984643,0.02570174767310085,0.010733894126413623,0.04560709527046424
0.4448782831127585,0.022371457831805934,0.008163069503290854,0.04199153638490527
0.4937047852839004,0.018995104579605418,0.005583955711657712,0.038002336699326705
0.5478901179593945,0.016456046784402264,0.004079031543697126,0.03466104836082794
0.6080224261649427,0.0147567509293845,0.0035099257371768154,0.031967428190888506
0.67475440531107,0.013365470339390487,0.0030725828854944676,0.02933948336191119
0.748810385759003,0.01190159375760244,0.002412191861635469,0.026623504619267248
0.8309941949353403,0.010293322549592808,0.001688955266892769,0.024169212294604774
0.9221978823334341,0.008776336768878241,0.0011145803130641941,0.022276772449256615
1.0234114021054528,0.007839435137517293,0.0008013986893618619,0.021086917863437176
1.135733358343105,0.007634543327339297,0.0007184291259996356,0.020472795685291457
1.2603829296797273,0.007730981349697735,0.0006896908995589771,0.020066555702362543
1.3987131026472386,0.007687958050581943,0.0005977533759573089,0.019566549673259187
1.552225357427048,0.007519239294239561,0.0005364703765899791,0.019074475385259318
1.7225859653987874,0.007377062378318779,0.0006262328521428166,0.018793912820701017
1.9116440753857036,0.007185606329510278,0.0007615614134712479,0.018743472256610896
2.121451784910632,0.0067408804302006705,0.0007239335299415598,0.018738774284930107
2.35428641432242,0.006097127992838656,0.000501683395093043,0.018532410553838995
2.612675225563332,0.005560694734492128,0.0002839405288011922,0.017894998167530995
2.8994228538828812,0.005298603345257138,0.00018875276379421693,0.0168636506840995
3.2176417502507353,0.005244613658207748,0.00018817340849445823,0.01582256571029818
3.5707859649004625,0.005265915735470222,0.0002195353442011175,0.01499765009139949
3.9626886387014784,0.005261988893303867,0.0002445700364616859,0.014280987513503337
4.397603609302721,0.005158351902347396,0.0002475956096071662,0.013515425091558718
4.880251583654434,0.004932914999101426,0.00023141265966207964,0.012834932925118952
5.415871378079476,0.0045985418696621785,0.00020593479408315636,0.012425080277306403
6.010276782070388,0.004240317997551387,0.00018152290735290544,0.012181595716021133
6.669919663030129,0.003972152027344757,0.00016574758964902364,0.011813666933421146
7.401959996915652,0.003817265163350672,0.00015620870680252975,0.011256991629444648
8.214343584919439,0.0037079760337611544,0.00014406610776297786,0.010703702812996381
9.115888299750837,0.003567945745827223,0.00013063354088244626,0.010258155998880731
10.11637979766207,0.0033605938964857977,0.00013238184623558754,0.009859823846125281
11.226677735108158,0.003108562712936239,0.00015889983632806631,0.009449551486078888
12.458833642950081,0.002926023889328724,0.00019720053791454133,0.009125127496199004
13.826221737646593,0.0028907430576790415,0.00022696574404673298,0.008967475577889556
15.343684089300131,0.0029144372143203464,0.0002365831572892362,0.008884496013365925
17.02769172225898,0.002832900951370928,0.0002216150890086846,0.00866349630655273
18.896523396912116,0.002591476325693969,0.00018701858055527806,0.008147531952881955
20.970464013232306,0.002241691766997937,0.00014486938259652946,0.0072878282641092255
23.27202478960412,0.0018744409112213453,0.00010877134262963768,0.006269232595499381
25.826187606826746,0.0015990830954359095,9.162936446074518e-05,0.005501779412750109
28.66067616948256,0.0014549348313047268,9.183880630500808e-05,0.0051808086133594035
31.80625692794119,0.0013863567799579845,8.885846677261521e-05,0.0051325538739155655
35.297073027306574,0.0013226947785755193,6.804605532861675e-05,0.005100816277019914
39.17101490809261,0.0012379337677242777,3.988767153665948e-05,0.004958189043046721
43.47013158125035,0.0011481681456343626,2.2847716514701568e-05,0.004700017183516292
48.241087041653735,0.0011163099549744715,2.3042811661393977e-05,0.0044766702915621055
53.535666774107185,0.0011975601264563956,3.571156849416123e-05,0.004448847045085303
59.411339849650396,0.0013325305866725428,4.9145715917918736e-05,0.00453436282438431
65.93188271333541,0.0013810559880068369,4.990323016100626e-05,0.004475669212054559
73.16807143427206,0.001307371326614979,3.8072871527583084e-05,0.0042109837914789455
81.19844993184009,0.0012134235533734386,2.8656939122736948e-05,0.003952443446207294
90.11018251665037,0.001173957570183573,3.0676213494176035e-05,0.003861619373105227
100.0,0.0011632245149362794,3.744474977167212e-05,0.003902928801896764
