tau,gamma,gamma_lo,gamma_hi
1e-07,1.0726276074712487e-06,-3.6166555167453186e-05,3.390340628497964e-05
1.1097524964120721e-07,5.551778016534977e-06,-0.0001846527285429838,0.00017329344142015397
1.2315506032928263e-07,1.9707657329486696e-05,-0.0006347618723851766,0.0005973289495813956
1.3667163564620074e-07,4.9867958769071895e-05,-0.0014966759920410802,0.0014172306009969699
1.5167168884709241e-07,9.610724994172996e-05,-0.0025193778551016103,0.0024171599266431666
1.6831803533309585e-07,0.0001523855908758175,-0.0032576276485029973,0.0031983352821884636
1.867913599020781e-07,0.0002083840601698943,-0.0035712349481860453,0.0036152474639455563
2.0729217795953698e-07,0.00024988253980862314,-0.0036157476157918046,0.003778655088128169
2.300430119772917e-07,0.00026893703019270133,-0.0035472074068854708,0.003848676800228939
2.5529080682395163e-07,0.00026575244163728345,-0.0034406038399841326,0.003958276491590961
2.833096101839324e-07,0.00024183923979533838,-0.0033400248135136185,0.00413385020509238
3.1440354715915e-07,0.00019896546676016283,-0.0033150433376823683,0.004270703197785297
3.489101213406774e-07,0.00013699393811359843,-0.0034078232829760535,0.0042591329471860975
3.872038781812557e-07,5.6315661241893846e-05,-0.003582610750602476,0.004130951612843621
4.2970047043208437e-07,-4.1336540850008014e-05,-0.003772916976664492,0.003971161811029279
4.768611697714474e-07,-0.00014987924493574154,-0.003970086141148147,0.003815408843659016
5.291978735958437e-07,-0.000258268087957529,-0.004187302117190589,0.0036513245412075415
5.872786613189477e-07,-0.0003574120470562614,-0.0043807899773536055,0.0034702491818778465
6.517339604882421e-07,-0.0004381584832910608,-0.004450442484384839,0.0032889403149643096
7.232633896483533e-07,-0.0004947631565764166,-0.004372193488525948,0.003138323241033599
8.026433522257174e-07,-0.0005266786281554367,-0.00425666014830278,0.0030645042946441797
8.907354638610439e-07,-0.0005401509263699615,-0.004204624088877902,0.0030713285466428073
9.884959046625586e-07,-0.0005528552578660513,-0.004235169207047812,0.003091626567333471
1.096985797892384e-06,-0.0005742987786065889,-0.00430671925554614,0.003053309780348835
1.217382727739662e-06,-0.000587846259172936,-0.004356633337264076,0.0029715122967035367
1.3509935211980278e-06,-0.0005687399323554271,-0.0043296103419959075,0.0029019605332810997
1.499268432786047e-06,-0.0005240070416243818,-0.004255247464329499,0.0028750890041403755
1.6638168860761274e-06,-0.0004837720801769693,-0.004212845630567553,0.0028946416721560594
1.8464249428955464e-06,-0.0004596961253937971,-0.004221401345712101,0.0029653847899156443
2.049074689815846e-06,-0.00043929779613962596,-0.004229072784398502,0.0030978500331776734
2.2739657523579273e-06,-0.00040994025314691567,-0.004195886000577627,0.0032797044595971156
2.523539170434766e-06,-0.000370707461779049,-0.0041397569862361375,0.0034677018619771417
2.800503894183631e-06,-0.00032088256522441093,-0.004070936883058579,0.003630950216861781
3.107866187782014e-06,-0.00025468512823191694,-0.003968756671574476,0.0037951947900927946
3.4489622604057595e-06,-0.0001678142662181394,-0.0038128285008087854,0.003974832315536785
3.827494478516315e-06,-7.054729179020399e-05,-0.0036562312572888537,0.004115729581832286
4.247571552536894e-06,2.1639763524228137e-05,-0.0035700396182381943,0.00413837753003001
4.713753134116729e-06,0.00011142096305717634,-0.0035338501139580945,0.00407962941897745
5.2310993080562585e-06,0.00021495684557982795,-0.0034546252620978658,0.004065547832008946
5.805225516094895e-06,0.00034035539672356305,-0.003300159640961228,0.004144987202698743
6.44236350872137e-06,0.0004801752234000094,-0.0031321033771219407,0.004262858783639261
7.149428986597577e-06,0.0006277768608611562,-0.002988693290381261,0.004381446170631891
7.934096665797492e-06,0.0007832832833022606,-0.0028428060114062304,0.004548361020756983
8.804883581643465e-06,0.0009479467350139871,-0.0026611241415014975,0.004791782960645388
9.771241535346501e-06,0.0011201986371420253,-0.0024744699705003485,0.005044080153491406
1.0843659686896109e-05,0.0012920951253334177,-0.002321748146637746,0.00520338482806698
1.2033778407775906e-05,0.0014537415118919981,-0.0021811011236365497,0.005267428384866638
1.3354515629298974e-05,0.0015909539275126494,-0.0020034087690708378,0.005288927719097576
1.48202070579886e-05,0.0016996592864639568,-0.0018119225540238705,0.005295577629067681
1.6446761779946626e-05,0.0017818469784964123,-0.0016989486329265246,0.005285319440663398
1.8251834943190462e-05,0.0018393615791951021,-0.0016994644373606513,0.005278478476835118
2.0255019392306664e-05,0.0018752208710003304,-0.0017572763506748152,0.005338814174206183
2.2478058335487252e-05,0.0018958108147353976,-0.0018099560488666834,0.0054798766133036915
2.4945081352303165e-05,0.0019217824454253183,-0.001840636805784905,0.005627299883700954
2.7682866303920665e-05,0.0019690841248150535,-0.0018528665152924173,0.005705468683366591
3.072112998861759e-05,0.0020405920500395176,-0.0018575940037072202,0.005756873084424193
3.409285069746814e-05,0.0021283358704591105,-0.0018536269944781282,0.00585357753557708
3.783462617131933e-05,0.0022285502535860017,-0.0018170272378886321,0.005991990393163897
4.1987070844439056e-05,0.0023394522130492086,-0.001711622748144086,0.0061107636065064
4.659525668664687e-05,0.0024654006984956003,-0.0015364013249807742,0.006211989574185284
5.170920242896755e-05,0.002613296296580738,-0.001337423044307181,0.006371139912942387
5.7384416483024044e-05,0.002784253807560551,-0.0011738397863751899,0.0066322648555300475
6.368249944718586e-05,0.0029748160641852994,-0.0011116903453024963,0.006980255663146939
7.067181273927492e-05,0.003188990439821579,-0.0011793379000909785,0.007393144764323968
7.842822061337681e-05,0.0034563250191687483,-0.001329551889544015,0.007898597507215716
8.703591361485166e-05,0.0038038716365882343,-0.0014784945068711558,0.008526575300190728
9.658832241158708e-05,0.0042400226837823645,-0.0015431647347197378,0.009292488611919012
0.00010718913192051276,0.004761108572748138,-0.0014539864201786445,0.010189087304784726
0.00011895340673703195,0.00538993004761223,-0.0012061532259174236,0.011237530281410463
0.0001320088400831418,0.006155936456080199,-0.0008209572220303381,0.012458475292041762
0.00014649713983072864,0.007066316211971393,-0.0002474692438980377,0.013860208064793607
0.0001625755666443795,0.008088072794396547,0.0006199279543634988,0.015410967630257425
0.00018041864093920718,0.009199705761273371,0.001778404103697866,0.017066071732304948
0.00020022003718155845,0.010406507477593299,0.0030096499447534544,0.018776775112001525
0.0002221946860939524,0.011706054903680043,0.004114239847773012,0.02047386493670938
0.0002465811075822604,0.013090226014905691,0.005088504616663435,0.022135619471753805
0.0002736439997074672,0.014533965567924799,0.006021991950674446,0.023782520459259184
0.00030367711180354605,0.016069709475922383,0.007026712791235442,0.025642217695837216
0.00033700643292719284,0.017723592110582453,0.008168562805410465,0.027952817310360083
0.0003739937302478798,0.019521312047126718,0.009423891650626095,0.030719790498950884
0.0004150404757850477,0.02144469004747027,0.01070102707678019,0.033700569041531486
0.00046059220411451084,0.023483031255281134,0.012037780083782349,0.03678060098229228
0.0005111433483440171,0.025623188378582084,0.013596435519984212,0.04001106593387619
0.0005672426068491978,0.027839510967419823,0.0153804512432046,0.04335502406015556
0.0006294988990221888,0.030129804852496455,0.01709447231142073,0.046614292577136396
0.0006985879746785249,0.03247216831272186,0.018468304615762342,0.04954856336133286
0.0007752597488629464,0.03493734604290609,0.019630633094604746,0.05226866778090909
0.000860346441668451,0.03757101251560175,0.020750062361243823,0.055045607033067
0.0009547716114208065,0.04048236915089614,0.021702427737930192,0.058464495985815636
0.001059560179277617,0.043757455108844275,0.02224426747714807,0.06315695045387383
0.0011758495540521582,0.0475602989285767,0.022720325932291882,0.06947101931899484
0.0013049019780144017,0.05205581285776612,0.02398709572010428,0.0773888518220268
0.001448118227674533,0.0573455283187056,0.02640447183122176,0.08686873764799466
0.0016070528182616384,0.06345222584747505,0.02952618824957464,0.09785963695852452
0.0017834308769319094,0.07048441476822408,0.03284714811504593,0.11026681853407394
0.0019791668678535573,0.07884759226536486,0.036309971014550906,0.12401876173725976
0.002196385372416547,0.08894521983343265,0.04024329142364474,0.13904875046234338
0.002437444150122222,0.10116804076863006,0.04551802359545068,0.1558450154342186
0.002704959730463137,0.11574056565293668,0.05309690111242824,0.1748341502939564
0.0030018358135755923,0.1330592638705389,0.06348674669152841,0.19654839856769704
0.003331294787934677,0.15334844800747444,0.07683324977548858,0.22149175329184878
0.0036969127071950323,0.17685953957716152,0.09367425893959493,0.25135268032865654
0.00410265810582719,0.20341785708470014,0.11472913384321118,0.2879330800230235
0.004552935074866948,0.23266896657913533,0.14039904663429256,0.32995947620250005
0.00505263106533568,0.26382811176898996,0.1699542709140461,0.3715953913815265
0.005607169938205458,0.2958159860557261,0.2016664357262126,0.4082358744653873
0.006222570836730231,0.32782011162936164,0.23276250543707946,0.4417948835396841
0.006905513520162331,0.35839924485794655,0.2604548106221458,0.47584909105496126
0.007663410868007463,0.38663578765900275,0.2848194427198651,0.5132915651766543
0.008504489341802686,0.41073133257293304,0.30617419684892266,0.5535726850736346
0.009437878277775391,0.42947226035066166,0.3234659309888503,0.5920508674495653
0.010473708979594508,0.44110912159598314,0.33384945591705917,0.6195787188183958
0.011623224686798541,0.44411747201044505,0.3362068401277622,0.628951895695697
0.01289890261253308,0.43758175395190413,0.33166533456692315,0.6166548446907045
0.014314589375234785,0.42110338056878566,0.320116420829991,0.5835248107928165
0.015885651294280528,0.3969562690590463,0.30030050002567193,0.5387812905702174
0.01762914118095948,0.3669288868258008,0.2709380182170815,0.4911940219198751
0.01956398343517065,0.33329054819856413,0.23469991974102636,0.4470509800029173
0.021711179456945052,0.29746718102410513,0.19527037775701342,0.40819371634521234
0.02409403560239527,0.26077414093553614,0.15576387943000852,0.3711347430033184
0.026738416158399492,0.2244878182692367,0.11897690974428277,0.33045810775699147
0.029673024081888724,0.18963624802728532,0.08696764101560422,0.2860880070162395
0.032929712550971546,0.15771899782215273,0.06175988496962975,0.2436217114185274
0.036543830709572546,0.12942961611836967,0.04317897984643461,0.20688729177583098
0.040554607358408275,0.10533368543961644,0.029033302920092537,0.17702117724187796
0.04500557675700498,0.08538204623139206,0.017398400396103107,0.15264909963903991
0.0499450511585514,0.06926382212343225,0.007910883736898014,0.13102279211591097
0.05542664520663107,0.05653032416728544,0.0010511992761370408,0.11011999383874689
0.06150985788580504,0.04673279959325079,-0.0026659619177756243,0.09109078770484567
0.06826071834272393,0.039444301620754005,-0.003093239669066586,0.07615041744472392
0.0757525025877192,0.03403377121055626,-0.0014818047082062378,0.06544971838901191
0.08406652885618333,0.029844707179046595,0.00021636391610188032,0.057687855435016054
0.09329304026284696,0.02646454733062828,0.0011944850647975771,0.0516803591383302
0.10353218432956637,0.023776134401125002,0.0017998055764019971,0.046842844505186075
0.11489510001873086,0.02167605752328849,0.0023948837900500883,0.04288106911215122
0.1275051240713013,0.020036118417739956,0.002918128026528333,0.03974372944689872
0.1414991297434576,0.018697013921770155,0.0031889971153069643,0.03733380501192537
0.15702901247293774,0.017547193484435432,0.003134140196608805,0.03551089247649959
0.17426333860096507,0.016481931068656096,0.0027251291549297446,0.03407739746532794
0.19338917504552322,0.015457639895545078,0.0019648466730672184,0.03292857849471101
0.21461411978584058,0.014442222070896484,0.0008959670158183271,0.031965333303161966
0.23816855519761607,0.013423135665114407,-0.00031658761668772254,0.03111475476295383
0.2643081486974108,0.012390751739922856,-0.0014485190612688408,0.03030981338777046
0.29331662783900486,0.011303728235163308,-0.002514851394341678,0.02954033258237923
0.32550885998350565,0.010099511650086873,-0.003788975625150485,0.028839718772612804
0.36123426997094304,0.008656519924467039,-0.005600406590933105,0.02804497361337678
0.40088063288984643,0.006827722676698316,-0.008285346235445938,0.02681385840089169
0.4448782831127585,0.004431194011986834,-0.012341206156524271,0.02492378595221611
0.4937047852839004,0.001327147698863538,-0.018455286850717983,0.022701143825591494
0.5478901179593945,-0.002672464793348911,-0.027141063308623804,0.0205798702031939
0.6080224261649427,-0.007817340207998635,-0.038082914838713774,0.018721702962833858
0.67475440531107,-0.014440851837286873,-0.050476456375327765,0.016809138165339608
0.748810385759003,-0.022962011993025062,-0.06399390324386157,0.01373635301710613
0.8309941949353403,-0.03366650436445728,-0.07847611986935925,0.00785546377504612
0.9221978823334341,-0.046430231156527134,-0.09379091520390438,-0.0017743980843623653
1.0234114021054528,-0.060366438298193215,-0.10954734027743587,-0.014846555845850705
1.135733358343105,-0.07449743699415247,-0.1257681632144692,-0.03030999154990819
1.2603829296797273,-0.08776789205746503,-0.1428510634944322,-0.04604528357674947
1.3987131026472386,-0.09903668723618349,-0.15951585846943991,-0.05995882258526606
1.552225357427048,-0.10747281454683578,-0.17157849703258252,-0.07084336205175412
1.7225859653987874,-0.11228067664547832,-0.17478297999172332,-0.07790036675996413
1.9116440753857036,-0.11372385535715691,-0.17092634114922334,-0.08131784002800002
2.121451784910632,-0.11235800462784477,-0.16474036418564425,-0.08146671707248494
2.35428641432242,-0.10863725611935725,-0.15804179570720914,-0.07858865925756764
2.612675225563332,-0.10286178754341548,-0.14959380727329857,-0.0728243720819635
2.8994228538828812,-0.0952878000930071,-0.13843870977654257,-0.06466403484211093
3.2176417502507353,-0.0865931507040533,-0.1255535341373117,-0.05546619050065164
3.5707859649004625,-0.07726200257421652,-0.11193306523014153,-0.04632006186942471
3.9626886387014784,-0.06789461937636294,-0.09841577243735429,-0.0379437159749585
4.397603609302721,-0.05886769794830023,-0.08544963095510355,-0.030590735334022727
4.880251583654434,-0.05049020742156188,-0.07360842543469968,-0.024115962795248486
5.415871378079476,-0.04294602822413957,-0.06335856465913738,-0.018245517716167677
6.010276782070388,-0.03623195962123566,-0.05466318082123061,-0.012827307348536024
6.669919663030129,-0.030313213549032315,-0.047274253654392945,-0.0079602738817513
7.401959996915652,-0.025147931470138687,-0.04105021584311338,-0.0039034569723216317
8.214343584919439,-0.020805163590791837,-0.03611051854362529,-0.0010501660928077022
9.115888299750837,-0.01721022007365169,-0.032295019065793996,0.0006734454477679843
10.11637979766207,-0.014175335259082579,-0.029110920192041763,0.0019415761040407844
11.226677735108158,-0.011513486079353059,-0.026064262005561018,0.0032326573766010397
12.458833642950081,-0.00917270350151029,-0.02297204481042549,0.004339584919431699
13.826221737646593,-0.007113275868020898,-0.019620217577884732,0.004800021306856799
15.343684089300131,-0.005210417175709297,-0.01560866140882975,0.004420199836554276
17.02769172225898,-0.003375030917115766,-0.010722216736431929,0.0032797470469015824
18.896523396912116,-0.0017553810343703105,-0.005766344188250573,0.0018302387702588958
20.970464013232306,-0.000671490149625299,-0.002241524607894531,0.0007231747796736326
23.27202478960412,-0.00017889668514038727,-0.0006013868713120302,0.00019536239277461332
25.826187606826746,-3.231075230535443e-05,-0.00010893637348137208,3.548866272519188e-05
28.66067616948256,-3.909334600654215e-06,-1.3196274385365586e-05,4.303970185514759e-06
31.80625692794119,-3.1528211052487877e-07,-1.0647815416863292e-06,3.4744163696997327e-07
35.297073027306574,-1.6913947271612948e-08,-5.713371070976676e-08,1.864645216851847e-08
39.17101490809261,-6.030825176432127e-10,-2.0373195272104086e-09,6.649612016863504e-10
43.47013158125035,-1.4287206957575005e-11,-4.826628743048962e-11,1.5754135099443892e-11
48.241087041653735,-2.248521723949027e-13,-7.596252196439071e-13,2.4794509129993774e-13
53.535666774107185,-2.350725039749264e-15,-7.941571292816255e-15,2.5921778332020853e-15
59.411339849650396,-1.63249474410738e-17,-5.515150087350339e-17,1.8001827055935295e-17
65.93188271333541,-7.530832771538831e-20,-2.5441864048898596e-19,8.304405351707886e-20
73.16807143427206,-2.3076708672442007e-22,-7.796145663601888e-22,2.5447182457406016e-22
81.19844993184009,-4.697250636632845e-25,-1.5869011455486943e-24,5.179760648211827e-25
90.11018251665037,-6.35114957607509e-28,-2.145648146513049e-27,7.00355184735299e-28
100.0,-5.704263542624453e-31,-1.9271066817229244e-30,6.290216727827317e-31
