tau,gamma,gamma_lo,gamma_hi
1e-07,7.187268640237122e-06,-3.37286524992109e-05,6.476949353984207e-05
1.1097524964120721e-07,3.68855220626164e-05,-0.00017265667962088416,0.00033114582110234207
1.2315506032928263e-07,0.0001283736817429435,-0.0005972519273812077,0.0011421354015744534
1.3667163564620074e-07,0.00031135792813161606,-0.0014285780451266186,0.002713790327716314
1.5167168884709241e-07,0.0005557490519267431,-0.0024775006414001544,0.004643643841195885
1.6831803533309585e-07,0.000795407725808862,-0.003371523013550255,0.006185276645676597
1.867913599020781e-07,0.0009995533225179408,-0.003943103655346276,0.007072950483059177
2.0729217795953698e-07,0.0011713472221033404,-0.004227748656723054,0.007510380779173125
2.300430119772917e-07,0.001322763526595239,-0.004308527053458002,0.007739385709536332
2.5529080682395163e-07,0.0014626369259276555,-0.004264218314949681,0.007903315498634192
2.833096101839324e-07,0.0015939601749913916,-0.004140990801558077,0.008060169945426299
3.1440354715915e-07,0.0017176811306474939,-0.003975562731063821,0.008238790978356303
3.489101213406774e-07,0.0018318325978272365,-0.003795693820791339,0.008430127218712965
3.872038781812557e-07,0.0019404547550584438,-0.003647303188180749,0.008610388874747922
4.2970047043208437e-07,0.0020440189432542923,-0.003570984260220368,0.008736379091554034
4.768611697714474e-07,0.0021398043583415694,-0.003572985446426437,0.008801811219369984
5.291978735958437e-07,0.002217147771192715,-0.0036303120076279635,0.008815623863164658
5.872786613189477e-07,0.002266410209311746,-0.0037155476570392295,0.00879644291702551
6.517339604882421e-07,0.0022807116399298135,-0.0037993814090674376,0.008769495276398453
7.232633896483533e-07,0.002262736571957329,-0.003852711796409264,0.00874573353762298
8.026433522257174e-07,0.002231833195105926,-0.0038535171525141206,0.008731669926996425
8.907354638610439e-07,0.002196639941507081,-0.003790744355197938,0.008693596780102366
9.884959046625586e-07,0.0021499186646459895,-0.0036912626233080847,0.008575578309686844
1.096985797892384e-06,0.0020786870683612907,-0.0035829640180047085,0.00832806803255811
1.217382727739662e-06,0.001991014321626527,-0.00348522167585684,0.008008494794744104
1.3509935211980278e-06,0.0019007184818105166,-0.0034069778411115865,0.0077009246110394
1.499268432786047e-06,0.0018104541548002529,-0.0033615008738667805,0.007422739189126785
1.6638168860761274e-06,0.001713058040764067,-0.0033625865506987725,0.00714193904246904
1.8464249428955464e-06,0.00160506133079097,-0.0034081088701999242,0.0068692317596088705
2.049074689815846e-06,0.0014935969369112329,-0.003486464424069111,0.006678874418169759
2.2739657523579273e-06,0.0013851943903772802,-0.0036099122808491836,0.006591082727224085
2.523539170434766e-06,0.0012883739141457487,-0.0038256015234054107,0.0065439353618158185
2.800503894183631e-06,0.001207888936337768,-0.004126260404688219,0.006474704434852836
3.107866187782014e-06,0.0011471561092043063,-0.004388427331221592,0.006410405700751198
3.4489622604057595e-06,0.0011041854071925136,-0.00447887867873393,0.006382027015159239
3.827494478516315e-06,0.001070001124038891,-0.004432397069209498,0.006356981554441917
4.247571552536894e-06,0.00103132885776721,-0.004372485629830368,0.006263178003648316
4.713753134116729e-06,0.0009818989486628023,-0.004372512445802436,0.0060999970785477284
5.2310993080562585e-06,0.0009241126301357244,-0.004434337033325126,0.0059374732398811015
5.805225516094895e-06,0.0008684355386813726,-0.004509000116693997,0.005846344032381841
6.44236350872137e-06,0.000834873246530466,-0.00451735482974304,0.005882894841976606
7.149428986597577e-06,0.0008366464654829646,-0.004412380656490486,0.0060438894113623975
7.934096665797492e-06,0.0008738077377043494,-0.004232765602349825,0.0062543504745204695
8.804883581643465e-06,0.0009363932722425242,-0.004046132260365102,0.006417884854970236
9.771241535346501e-06,0.0010064471077172094,-0.00393824601674221,0.006487077196116621
1.0843659686896109e-05,0.0010645490472359148,-0.003969653325655772,0.006447088302845661
1.2033778407775906e-05,0.0011063567786491369,-0.0041219260732129545,0.0063579513012505945
1.3354515629298974e-05,0.0011366098916502422,-0.004310715055907358,0.006311230748315418
1.48202070579886e-05,0.0011654516901117766,-0.004440635051540844,0.00636328994189252
1.6446761779946626e-05,0.0012045299800075443,-0.004425604050522001,0.0065262855497938916
1.8251834943190462e-05,0.001258557045375299,-0.0042678607270223755,0.006771717482630101
2.0255019392306664e-05,0.001324853973477367,-0.00408163024094983,0.007036777029919983
2.2478058335487252e-05,0.0014001648502370832,-0.003940836651479381,0.007251053979317908
2.4945081352303165e-05,0.0014872352624351205,-0.003815841494517891,0.007376208762348838
2.7682866303920665e-05,0.0015851795551126203,-0.003646085524750671,0.007406314516506607
3.072112998861759e-05,0.0016866338055132202,-0.003437317090610674,0.007428607967367398
3.409285069746814e-05,0.0017790463699100486,-0.003238535468704171,0.0075331167164215986
3.783462617131933e-05,0.001861554829868962,-0.003118232701758822,0.007717222338516708
4.1987070844439056e-05,0.0019395532123121246,-0.003143465256169395,0.007906042762076305
4.659525668664687e-05,0.0020216978451732814,-0.003322361306996225,0.008073778941391604
5.170920242896755e-05,0.0021150723279424917,-0.0035983338571986805,0.008251457907991666
5.7384416483024044e-05,0.0022152348117373847,-0.0038958051592106503,0.008440854825369798
6.368249944718586e-05,0.002307045532751,-0.004137968941200846,0.008601038192574073
7.067181273927492e-05,0.002381987295000722,-0.00428714419980942,0.00870652013837021
7.842822061337681e-05,0.00245957184092893,-0.004390502201074803,0.008830628036461544
8.703591361485166e-05,0.002555960766252681,-0.004492923297804378,0.009046428023763873
9.658832241158708e-05,0.0026637484651617013,-0.0045777180307465274,0.009366853553428495
0.00010718913192051276,0.0027589221694523263,-0.004593404419575927,0.009749114171737783
0.00011895340673703195,0.0028372199606063984,-0.004547970165454526,0.010163737668277896
0.0001320088400831418,0.0029106120220826967,-0.004486614962450778,0.010572676975765617
0.00014649713983072864,0.0029980813088207633,-0.004406203035353389,0.010913752086247935
0.0001625755666443795,0.003121362255736257,-0.00425967716155773,0.011112039513850123
0.00018041864093920718,0.003288216790858404,-0.004061591487188476,0.011183023094618329
0.00020022003718155845,0.0034917309569681117,-0.003949103535180327,0.011325659224775741
0.0002221946860939524,0.003723761645041413,-0.004007820973293621,0.011756542154692426
0.0002465811075822604,0.003997375352349536,-0.0041397696670746505,0.012625591405257104
0.0002736439997074672,0.004326487467870637,-0.00415756513783635,0.013939208810271426
0.00030367711180354605,0.004721670594413557,-0.003934538050222192,0.015478263929623867
0.00033700643292719284,0.005181608871400144,-0.003441266698493127,0.016927751234421994
0.0003739937302478798,0.005712743416833022,-0.002855708081438034,0.018292252984231528
0.0004150404757850477,0.0063265612287830425,-0.0024980472434790765,0.019844649822601895
0.00046059220411451084,0.007061768045674901,-0.002479956783681002,0.021855103084111423
0.0005111433483440171,0.007974937462072314,-0.002647255155802168,0.024484126138809608
0.0005672426068491978,0.009086030322886416,-0.0028673766914336027,0.027744069130631138
0.0006294988990221888,0.010354840728960917,-0.0031726419749598103,0.031471452296391735
0.0006985879746785249,0.011762860520041716,-0.0036375096587840067,0.035454793077305
0.0007752597488629464,0.013426783266876206,-0.004269972518487896,0.03965481031218734
0.000860346441668451,0.01552590234031759,-0.005038438906782261,0.044186594086626695
0.0009547716114208065,0.018273459887159088,-0.005939341695046421,0.04961597854393324
0.001059560179277617,0.021907239638765535,-0.006989162423671399,0.056716985125759824
0.0011758495540521582,0.02677453937586139,-0.008209374718934789,0.0661961073128625
0.0013049019780144017,0.03333735860727865,-0.009416357196108047,0.07874952401819045
0.001448118227674533,0.04223738637926557,-0.009776450106089149,0.09567681817772379
0.0016070528182616384,0.054155423499918975,-0.007687251745931583,0.11849512089542698
0.0017834308769319094,0.06950758150739339,-0.0019761297595546658,0.14684091051502693
0.0019791668678535573,0.08800389231699292,0.007154570257293045,0.17685992873040798
0.002196385372416547,0.10916140302030569,0.019363667435397535,0.20533219384712936
0.002437444150122222,0.13284090244303481,0.034949547075811334,0.23462083686062088
0.002704959730463137,0.15881011385818491,0.05449859714581677,0.2683232879642087
0.0030018358135755923,0.18700922780861154,0.078087012932245,0.3058908327778927
0.003331294787934677,0.21677241589674584,0.10455113588134428,0.3429930651864558
0.0036969127071950323,0.24735828894605266,0.13153205181003882,0.3783089526840344
0.00410265810582719,0.27752676890833283,0.15563768582099888,0.41369433792125876
0.004552935074866948,0.3069151077145153,0.17693710973088023,0.450817724647239
0.00505263106533568,0.33635383552418574,0.20012292259572798,0.4899317399437216
0.005607169938205458,0.36575987969908064,0.22781058403661442,0.5303467144791045
0.006222570836730231,0.39375563284021675,0.2562510552235439,0.5727153882797774
0.006905513520162331,0.4179173886400847,0.279925775224834,0.6186114519393009
0.007663410868007463,0.4378497836725124,0.2984767013177925,0.6725169552377992
0.008504489341802686,0.45262251130572895,0.31298539636922823,0.7324506059273368
0.009437878277775391,0.46022002954391145,0.3217405473035586,0.7779777922157082
0.010473708979594508,0.457298048318331,0.3200057133006535,0.7772681727459367
0.011623224686798541,0.44317134524023993,0.3057288701570967,0.7275343363020422
0.01289890261253308,0.4210422625089662,0.28138087941809214,0.6615134505160337
0.014314589375234785,0.3933154321190746,0.25032150889202526,0.6038712778236284
0.015885651294280528,0.36188672049282045,0.21706466547715075,0.5560476213472653
0.01762914118095948,0.3271537486274035,0.1836452629379409,0.5098030146236934
0.01956398343517065,0.2901595431930913,0.14883164203556623,0.46085349323950947
0.021711179456945052,0.25182073015967604,0.11126435594589268,0.40804060353243005
0.02409403560239527,0.2137220719406955,0.07439240962080373,0.3538055992081862
0.026738416158399492,0.17788281720544874,0.044499629950702994,0.3024742335655834
0.029673024081888724,0.1454842777554894,0.023662785311660578,0.2573980923400654
0.032929712550971546,0.11754357372770817,0.010221363721102716,0.22116389029950856
0.036543830709572546,0.09413432947414822,0.0016475602541303933,0.19257923955317185
0.040554607358408275,0.07503779678780635,-0.004198070900328417,0.16744527438350276
0.04500557675700498,0.05978130842616268,-0.008289240629351637,0.14286886078344083
0.0499450511585514,0.04797907037440542,-0.010346356176840644,0.12040684099212871
0.05542664520663107,0.03917255482842892,-0.010134215289808932,0.10233439816198382
0.06150985788580504,0.03262319552586884,-0.008851288324116984,0.08889305335714535
0.06826071834272393,0.02759276958695339,-0.008022081868828303,0.07901325717050887
0.0757525025877192,0.023630467782479132,-0.007855125949773643,0.07135444203937358
0.08406652885618333,0.020530977864958735,-0.007661052769771056,0.06478973384727794
0.09329304026284696,0.018064719132810204,-0.007174914094487378,0.05887161355777102
0.10353218432956637,0.01596815143038136,-0.006748201193550632,0.053795243448842386
0.11489510001873086,0.014026280392729447,-0.006692264616691776,0.04953120642753037
0.1275051240713013,0.012166690273953,-0.007049132536468776,0.045732286001998246
0.1414991297434576,0.010382004864758085,-0.007752827601960107,0.04204132731790146
0.15702901247293774,0.008762253507672652,-0.008735724303644861,0.03851404385648091
0.17426333860096507,0.007363072008488015,-0.009962641910274201,0.03518434281499929
0.19338917504552322,0.0061133702086418554,-0.011457968616859741,0.03185372075770406
0.21461411978584058,0.004886757601251293,-0.01320685605331414,0.02826567452668615
0.23816855519761607,0.003620949648021591,-0.01507546357849658,0.02460580380001917
0.2643081486974108,0.00232194402034897,-0.016856388514352894,0.021397069950850674
0.29331662783900486,0.0009778288005852307,-0.018626702822190307,0.018849066212954575
0.32550885998350565,-0.00043297821002761497,-0.020738102152104608,0.016844021047347602
0.36123426997094304,-0.0019494178675610132,-0.023443697475885966,0.015189622935187944
0.40088063288984643,-0.0035948841035110934,-0.026719546793303194,0.013830614217640097
0.4448782831127585,-0.005394921509513007,-0.030361483185442326,0.012879569343535544
0.4937047852839004,-0.007379163570612813,-0.034100871229472716,0.012634693705528985
0.5478901179593945,-0.009615137598303935,-0.03782041597920855,0.013036434306988975
0.6080224261649427,-0.012273139734540086,-0.04203269458014558,0.013004474299859263
0.67475440531107,-0.015507929946026615,-0.047369506484440625,0.011182629962822167
0.748810385759003,-0.019306826692966947,-0.05387111137763155,0.007717752886919981
0.8309941949353403,-0.023466826851205495,-0.061005140747843925,0.004020565850238101
0.9221978823334341,-0.02790699049416903,-0.0686305956932218,0.000997444359630583
1.0234114021054528,-0.03263596063691323,-0.07693888773686698,-0.0012785103834828248
1.135733358343105,-0.037637943299486054,-0.08554726179050712,-0.0031105984588763675
1.2603829296797273,-0.04277554545898191,-0.0930874810867423,-0.004944673328529967
1.3987131026472386,-0.04780220813524403,-0.0983484492127875,-0.007225377614342813
1.552225357427048,-0.052530727648583436,-0.10181994448979165,-0.01031728404491023
1.7225859653987874,-0.05674351234232381,-0.1045167247223295,-0.014403797903161663
1.9116440753857036,-0.06053135900626074,-0.10741548209677527,-0.019237574141299625
2.121451784910632,-0.063966320400263,-0.11116939018040549,-0.024115874306277065
2.35428641432242,-0.06698462003494648,-0.11630874337766728,-0.028134104641989958
2.612675225563332,-0.06926293229420533,-0.12312274561719275,-0.030230488551542693
2.8994228538828812,-0.07046232346272199,-0.13131874475575875,-0.030069618290151378
3.2176417502507353,-0.07037265307971476,-0.1396974282433393,-0.02828550712018612
3.5707859649004625,-0.06882396946376879,-0.1461309381815243,-0.025586226015257982
3.9626886387014784,-0.06601185751240872,-0.1478714416013201,-0.022513296860383194
4.397603609302721,-0.062046537030039255,-0.14273916639717535,-0.019105036750002545
4.880251583654434,-0.05714764376480324,-0.13191831972206475,-0.014831878566706395
5.415871378079476,-0.05153060141755886,-0.11809263751009902,-0.009320845477441246
6.010276782070388,-0.045682657178144286,-0.10422940684231127,-0.00359853950550712
6.669919663030129,-0.04023559537933722,-0.09293875301151204,0.0004813014471680002
7.401959996915652,-0.035407911808905,-0.08464198105378289,0.0024609989532061033
8.214343584919439,-0.031111595249629538,-0.0780237734230272,0.0033156772801449445
9.115888299750837,-0.027146430641826928,-0.07176097531697473,0.003934381718718626
10.11637979766207,-0.02344234961511749,-0.0654393257999173,0.00458683311547771
11.226677735108158,-0.019960711508046288,-0.05909574047537921,0.005227478440846236
12.458833642950081,-0.016753868587667503,-0.05318274916676015,0.005709165349883261
13.826221737646593,-0.013752291101828159,-0.04737631652818698,0.005804876317475625
15.343684089300131,-0.010643155179535098,-0.03973371190949627,0.0052531423618399605
17.02769172225898,-0.007191291734974731,-0.02848378886047711,0.003913715859206083
18.896523396912116,-0.0038346269284258807,-0.015703363372565685,0.0021961680731880672
20.970464013232306,-0.00148481942728239,-0.006177357050170627,0.0008705234646277784
23.27202478960412,-0.00039770429028188254,-0.0016659547206720287,0.00023551311123513503
25.826187606826746,-7.199119395378182e-05,-0.0003024273206012871,4.280903093588201e-05
28.66067616948256,-8.718369203337797e-06,-3.6667745401386285e-05,5.193107318169928e-06
31.80625692794119,-7.033874904125904e-07,-2.9597150660442766e-06,4.1926222819163114e-07
35.297073027306574,-3.77403890293195e-08,-1.5883466820337006e-07,2.250187463611295e-08
39.17101490809261,-1.3457516283755546e-09,-5.664188921866747e-09,8.024654441172691e-10
43.47013158125035,-3.188205828907694e-11,-1.341939350200459e-10,1.9011993361619037e-11
48.241087041653735,-5.017651473789587e-13,-2.1119935247563147e-12,2.9921946361698267e-13
53.535666774107185,-5.245743048092925e-15,-2.208011607375075e-14,3.1282367836469173e-15
59.411339849650396,-3.642987583140656e-17,-1.533391103399293e-16,2.1724591238225e-17
65.93188271333541,-1.6805413161559837e-19,-7.073670248137731e-19,1.0021751972714565e-19
73.16807143427206,-5.149679199894227e-22,-2.1675840215756706e-21,3.070964863624369e-22
81.19844993184009,-1.048214322865192e-24,-4.412105773632283e-24,6.2509330733667025e-25
90.11018251665037,-1.4172899772712485e-27,-5.9656059898867564e-27,8.451883667033281e-28
100.0,-1.2729342294948302e-30,-5.357989090990469e-30,7.591031158498886e-31
