tau,gamma,gamma_lo,gamma_hi
1e-07,6.965004496408583e-06,-3.4339703316596725e-05,4.632838084421898e-05
1.1097524964120721e-07,3.572199404732522e-05,-0.00017465737236544283,0.00023667794291644563
1.2315506032928263e-07,0.00012413051209766946,-0.0005948931694243624,0.000814780866203687
1.3667163564620074e-07,0.0002999438799621097,-0.001372798828487807,0.0019275185126384831
1.5167168884709241e-07,0.0005307690587787932,-0.0022057635524676605,0.0032670830061102374
1.6831803533309585e-07,0.000745461537573526,-0.0026195890933560055,0.004274169243141149
1.867913599020781e-07,0.0009019756628651113,-0.0025687689854740673,0.004750810658765132
2.0729217795953698e-07,0.0009889767861995104,-0.0024033023049995846,0.004854702270691556
2.300430119772917e-07,0.0010159747661882077,-0.002345259956083916,0.0047740617785076486
2.5529080682395163e-07,0.001007865167330782,-0.00234585855036756,0.004629369212607235
2.833096101839324e-07,0.0009818598256314819,-0.0023171916948044316,0.004469340931764926
3.1440354715915e-07,0.0009426471641932215,-0.002277436973476761,0.004308629046892331
3.489101213406774e-07,0.000885364817349809,-0.002269528895682069,0.004142228831848616
3.872038781812557e-07,0.0008055701754150919,-0.002288601518181995,0.003975881241461021
4.2970047043208437e-07,0.0007002505662153559,-0.0023107272424589863,0.003809993333220285
4.768611697714474e-07,0.0005756636306035333,-0.0023612240293570132,0.003634718011048024
5.291978735958437e-07,0.000444152404367353,-0.002488367320940524,0.0034346453212966235
5.872786613189477e-07,0.00031201703608178794,-0.0026797874883508943,0.0032157988916047954
6.517339604882421e-07,0.00018238392121625667,-0.0028593428303466542,0.0030142052737328583
7.232633896483533e-07,5.851219677534188e-05,-0.0029879251029354703,0.002862947089771944
8.026433522257174e-07,-5.187884040397605e-05,-0.0030983651220259346,0.0027853144970896595
8.907354638610439e-07,-0.00014693584136561458,-0.0032152740440154347,0.0027598617495615666
9.884959046625586e-07,-0.00023630992257487674,-0.0033149624376688515,0.0027066843200994626
1.096985797892384e-06,-0.0003256193584300386,-0.0033541072823678798,0.0025591703533432504
1.217382727739662e-06,-0.0004014416588409399,-0.0033299109385627975,0.0023668418294221613
1.3509935211980278e-06,-0.00044312952437279346,-0.003265921388857913,0.002228124090839857
1.499268432786047e-06,-0.0004536127615415949,-0.0032110650166434504,0.0021781810833079902
1.6638168860761274e-06,-0.00045223062813682616,-0.0032192358653154356,0.0021958559724086675
1.8464249428955464e-06,-0.0004476396250855312,-0.0032952276301057262,0.0022616292757283293
2.049074689815846e-06,-0.00043417413326851103,-0.0033926463776290466,0.0023694111872391843
2.2739657523579273e-06,-0.00040816866287355405,-0.003470479049258558,0.002499799412000122
2.523539170434766e-06,-0.00037735831820511753,-0.00352040942974945,0.002609826660631748
2.800503894183631e-06,-0.0003479950417643169,-0.0035290492033527854,0.002667854284172739
3.107866187782014e-06,-0.0003172940516402892,-0.0034707523247749263,0.0026973198836574225
3.4489622604057595e-06,-0.0002773623443112844,-0.0033234866737733145,0.002740356524117414
3.827494478516315e-06,-0.00022304826082580355,-0.0031272005294735294,0.002833300116272247
4.247571552536894e-06,-0.00015390681959681876,-0.0029477802620495107,0.002984421171441975
4.713753134116729e-06,-7.844243682746494e-05,-0.0028133951993966106,0.003147416573769972
5.2310993080562585e-06,-1.18460850839998e-05,-0.002719243790166285,0.0032381090867961665
5.805225516094895e-06,4.096803226486026e-05,-0.0026624680030893845,0.0032338736485395653
6.44236350872137e-06,8.62740315238386e-05,-0.002657233433270554,0.003195769943903311
7.149428986597577e-06,0.00012757543926060464,-0.0027091947563225903,0.0031781074542956015
7.934096665797492e-06,0.00015826721445388444,-0.0028039928669803507,0.003196789998155579
8.804883581643465e-06,0.00017053328457808934,-0.002904493694414882,0.0032395508501525208
9.771241535346501e-06,0.0001651982525549251,-0.0029612628785985477,0.003289009410284027
1.0843659686896109e-05,0.0001461299216282145,-0.002946165354764008,0.003325316434927559
1.2033778407775906e-05,0.00011597784456711094,-0.00292978870943519,0.003347767410222046
1.3354515629298974e-05,7.771044614372357e-05,-0.0030189409822150687,0.003357556881904544
1.48202070579886e-05,3.9773353693184895e-05,-0.0032097863231984034,0.0033423622072931165
1.6446761779946626e-05,1.5111931514143522e-05,-0.003387372681134051,0.0032793386469198633
1.8251834943190462e-05,5.762321452471424e-06,-0.003468612466033074,0.0031686976952124
2.0255019392306664e-05,-2.0624222596899825e-07,-0.003453090601956045,0.0030539957257974125
2.2478058335487252e-05,-1.1056817232970658e-05,-0.0033779646013977743,0.002977823033884445
2.4945081352303165e-05,-2.1792540994091356e-05,-0.0033098484407388926,0.0029702033459730855
2.7682866303920665e-05,-2.6933563917569624e-05,-0.003280774785886584,0.0030315385262727353
3.072112998861759e-05,-3.358684019411854e-05,-0.0032480795140551514,0.0031203775284256606
3.409285069746814e-05,-5.3542795608734456e-05,-0.003147715900021735,0.0031647371564201715
3.783462617131933e-05,-8.8693237162978e-05,-0.0030048268970174715,0.0031034240954159404
4.1987070844439056e-05,-0.00013330849366921584,-0.002910050667849097,0.002902361360726989
4.659525668664687e-05,-0.00018480200086958652,-0.0029232181578117285,0.0026210447493534585
5.170920242896755e-05,-0.00024284665495497295,-0.0030489571412798218,0.002406535734855865
5.7384416483024044e-05,-0.0003013350694842922,-0.0032278469631994455,0.002336536007009545
6.368249944718586e-05,-0.00034525600281368944,-0.0033435063805025774,0.0023712977141198445
7.067181273927492e-05,-0.00036786881071573444,-0.0033328474572419655,0.002437707704092173
7.842822061337681e-05,-0.0003843386728087316,-0.0032790294286741007,0.0024882651513946797
8.703591361485166e-05,-0.0004094747117295732,-0.00328296046229186,0.002510374909723367
9.658832241158708e-05,-0.0004356697609516425,-0.0033460567459199252,0.002551129037275288
0.00010718913192051276,-0.00044361064514306716,-0.003403362819681277,0.00265755709510097
0.00011895340673703195,-0.00042883010311439837,-0.0034160611978568205,0.0027871409329471783
0.0001320088400831418,-0.0003994021710277625,-0.003378830539931009,0.0028352028240788653
0.00014649713983072864,-0.00036037057485938123,-0.0033143571036552953,0.002783215256494308
0.0001625755666443795,-0.0003111389815760145,-0.0032678493333344496,0.0027249588118609153
0.00018041864093920718,-0.00024948711045728715,-0.0032608264616421465,0.0027430236273421225
0.00020022003718155845,-0.00017711259973077824,-0.0032787326611604414,0.0028590139795968707
0.0002221946860939524,-9.815621745554023e-05,-0.003278012255968494,0.0030417860021421626
0.0002465811075822604,-2.0730645853447905e-05,-0.0032080850453773133,0.0032177330812631732
0.0002736439997074672,5.005278548970433e-05,-0.0030431313393219184,0.00332038310301296
0.00030367711180354605,0.00012146249554696716,-0.002856205808968327,0.0033756290565891906
0.00033700643292719284,0.00020253192568835338,-0.0027561270305060366,0.003446074867244356
0.0003739937302478798,0.0002846501970728526,-0.002756151252405779,0.0035388483013677505
0.0004150404757850477,0.00034354150343539623,-0.002782959361373662,0.0036082800708528364
0.00046059220411451084,0.0003700610261222625,-0.002784431225678716,0.0036422265393623123
0.0005111433483440171,0.0003761482202653029,-0.002764076298336495,0.003686296370996154
0.0005672426068491978,0.00037134595759874187,-0.0027447531890298434,0.0037709706717195123
0.0006294988990221888,0.00035293001458860365,-0.002761438494610463,0.0038852199948898724
0.0006985879746785249,0.00031316302689610203,-0.0028431036212640593,0.004003601797678153
0.0007752597488629464,0.000249822199629559,-0.0030092912492950606,0.004128715526239111
0.000860346441668451,0.00016209516915132238,-0.003260116910485055,0.004265549685544668
0.0009547716114208065,4.817512846697636e-05,-0.0035708158935989316,0.004409152172483535
0.001059560179277617,-9.448024226033364e-05,-0.003916090663616878,0.004535494035058247
0.0011758495540521582,-0.00026805936406451786,-0.004350663028980272,0.004623127832652759
0.0013049019780144017,-0.0004729137413467481,-0.004983779611893691,0.0046594617243985986
0.001448118227674533,-0.0007164435738580243,-0.005840553182668067,0.004664297618209209
0.0016070528182616384,-0.0010100509905672714,-0.006824003327145264,0.004708723013228951
0.0017834308769319094,-0.0013616524088447318,-0.007905137481055386,0.004861336762821877
0.0019791668678535573,-0.0017684116690478524,-0.009238808503390617,0.0051735751380881405
0.002196385372416547,-0.002237505928474825,-0.01099439989234917,0.005670352448859896
0.002437444150122222,-0.002802437719320389,-0.01326387709782596,0.006389391506752275
0.002704959730463137,-0.0034636846421038318,-0.01642238135157859,0.007588764334861509
0.0030018358135755923,-0.004161536463007175,-0.021826052083127052,0.010113928156599629
0.003331294787934677,-0.005115944131558008,-0.031765935264026296,0.015282865626918147
0.0036969127071950323,-0.007538888260833474,-0.04916299074178078,0.02439331860973867
0.00410265810582719,-0.012845218713239534,-0.08043970302469587,0.040001500763578376
0.004552935074866948,-0.01931578483314667,-0.14291584280709085,0.0704319067041134
0.00505263106533568,-0.023120403193838374,-0.26544233075710966,0.13568702487809214
0.005607169938205458,-0.02959284834338186,-0.4632935300903374,0.27472963842435594
0.006222570836730231,-0.041168265427712646,-0.6971137997492176,0.558697191342181
0.006905513520162331,0.042366514266663144,-0.8381462048021886,1.1013856944150484
0.007663410868007463,0.5161878953568864,-0.6450303542529812,2.0265299724604757
0.008504489341802686,1.5659460940890042,0.0257687040151346,3.289618323308756
0.009437878277775391,2.640973302237089,0.7666990066438794,4.33922582135839
0.010473708979594508,2.7356293010559343,0.8386094603764646,4.336888582985725
0.011623224686798541,1.7343950264697212,0.1671471744852188,3.2249381446174237
0.01289890261253308,0.6035760931918186,-0.5222863587179039,1.8784187380087989
0.014314589375234785,0.05348371716128629,-0.7139147101927896,0.969347296835251
0.015885651294280528,-0.03667390519746139,-0.5487851978850261,0.5043218861405814
0.01762914118095948,-0.013452311273359685,-0.33370749003709227,0.26688769674840496
0.01956398343517065,-0.009612082782898365,-0.18950538975458323,0.1322988189259443
0.021711179456945052,-0.014448095396745686,-0.11131233248889288,0.061629886483353234
0.02409403560239527,-0.012799470638785736,-0.07116474163467698,0.03137860674471618
0.026738416158399492,-0.008719970412584141,-0.04882032272102135,0.01857880487656385
0.029673024081888724,-0.00653906248749234,-0.0344022074371069,0.011012410605317173
0.032929712550971546,-0.005661872239913051,-0.024560808341706306,0.006228461977220484
0.036543830709572546,-0.004803996584738473,-0.017973525354658328,0.004025761850317004
0.040554607358408275,-0.003875235377787454,-0.013619193810344004,0.003366972154841288
0.04500557675700498,-0.003142276098161984,-0.010724562261810695,0.003222000028610018
0.0499450511585514,-0.002638253456026233,-0.008828102359743118,0.003174494940425314
0.05542664520663107,-0.0022680834391769888,-0.00763330453833937,0.00313249112950296
0.06150985788580504,-0.0019673371880614037,-0.006856907443467705,0.0030590368429600735
0.06826071834272393,-0.001707847156679828,-0.006250872279588787,0.002925093505220537
0.0757525025877192,-0.0014714850538832043,-0.005697627209941613,0.0027705789009072057
0.08406652885618333,-0.001245519699931045,-0.005174599601315514,0.0026722817737423227
0.09329304026284696,-0.001030678460270675,-0.004693412901976628,0.002652181205941204
0.10353218432956637,-0.0008437462781309871,-0.004286278845910117,0.002671333470979079
0.11489510001873086,-0.0006931605735451077,-0.0039706859331038735,0.002682355725182443
0.1275051240713013,-0.0005756723058948336,-0.003750009527893785,0.002656435711761711
0.1414991297434576,-0.00048108981709201886,-0.0035897473310127896,0.0025946339595043365
0.15702901247293774,-0.00039715083212964734,-0.0034191144516975223,0.002549732350619771
0.17426333860096507,-0.00031453329025087686,-0.003196543841671313,0.002571117297310362
0.19338917504552322,-0.00023350632867429077,-0.003002566517835862,0.0026606839149209954
0.21461411978584058,-0.00015939342697337148,-0.002944169745022294,0.0027816975278676394
0.23816855519761607,-9.48362284361408e-05,-0.0029953003829240924,0.0028860020959988993
0.2643081486974108,-3.999605673390354e-05,-0.003031907873082546,0.002923296337507392
0.29331662783900486,8.757186337175493e-06,-0.0029979131281650303,0.0028861373517623913
0.32550885998350565,5.6504595764338924e-05,-0.002929683906431821,0.0028148774560683297
0.36123426997094304,0.00010460678637009813,-0.0028595899965024375,0.0027560911025532892
0.40088063288984643,0.0001484165691087953,-0.0027870047853890147,0.002755492343379546
0.4448782831127585,0.00018534973355991294,-0.00270518292485974,0.0028290571438760524
0.4937047852839004,0.00022066827832778268,-0.0026379997182134868,0.0029476144749600386
0.5478901179593945,0.00025818407725942597,-0.0026054832944705166,0.00305522389575167
0.6080224261649427,0.0002908193919393159,-0.002594156317590921,0.00310307136973279
0.67475440531107,0.00030710075988092466,-0.002569183684193562,0.0030569918950084166
0.748810385759003,0.00030926786832530186,-0.0025185113214764286,0.0029451630886977447
0.8309941949353403,0.0003084129205337106,-0.0024564739043838983,0.0028365185832584616
0.9221978823334341,0.00030362237711751205,-0.002416319658967611,0.002760694433091751
1.0234114021054528,0.0002798499155165702,-0.0024461032045096365,0.0027020450401273564
1.135733358343105,0.00023065644595656777,-0.0025622198131691506,0.0026512531410531276
1.2603829296797273,0.00017167614556954855,-0.0027308993893848483,0.0026395296332727236
1.3987131026472386,0.00011891990634092656,-0.00290578580344735,0.002691791139720118
1.552225357427048,7.391426683853746e-05,-0.0030618057644514877,0.002794444884284262
1.7225859653987874,3.277118536823582e-05,-0.003171098583646413,0.0029044854392324304
1.9116440753857036,-2.1619759102242743e-06,-0.003197345407849406,0.0029776945646936147
2.121451784910632,-2.363433594377314e-05,-0.00310255493610438,0.0029814546143338634
2.35428641432242,-2.9742452215293922e-05,-0.002909792129157583,0.0029463835316329745
2.612675225563332,-2.4942988181820727e-05,-0.0027002876311787044,0.0029407008960756808
2.8994228538828812,-1.7154329197978043e-05,-0.00254210598390736,0.002956636738650489
3.2176417502507353,-1.5785205788067212e-05,-0.002476320416960214,0.002897881860688875
3.5707859649004625,-2.1850086439974925e-05,-0.00249758162938472,0.002725213877741902
3.9626886387014784,-2.3110022372803084e-05,-0.0025496651046023546,0.0025544695500368496
4.397603609302721,-1.0991120191206148e-05,-0.0025799053882612035,0.0025010586294579996
4.880251583654434,2.8928869691820044e-06,-0.00259925161061438,0.002547445302661348
5.415871378079476,1.4878761509291111e-06,-0.0026393581032154445,0.0026087346782433024
6.010276782070388,-1.376933010975501e-05,-0.0027055264708732833,0.0026445323886720644
6.669919663030129,-2.936648727732618e-05,-0.0027775004887560214,0.002653554307640134
7.401959996915652,-4.145013056565791e-05,-0.002844622234921965,0.0026451499439999176
8.214343584919439,-5.595387253641009e-05,-0.0029077954781641328,0.0026312797609164716
9.115888299750837,-7.061487909205861e-05,-0.0029613147336595915,0.0026293495254496417
10.11637979766207,-6.948484148683754e-05,-0.0029931084727962604,0.0026682087982401485
11.226677735108158,-4.450857899016325e-05,-0.0029993131057290635,0.002753442741222563
12.458833642950081,-1.1604260496673356e-05,-0.002997308234201038,0.0028413589222788457
13.826221737646593,9.328840616585524e-06,-0.0029420418180040203,0.002826245801802918
15.343684089300131,1.4999383134774391e-05,-0.002662078083813813,0.0025503901916518325
17.02769172225898,1.2096048265861465e-05,-0.0020010146801091593,0.001905050860952721
18.896523396912116,6.775612728448442e-06,-0.0011302394552581095,0.0010714718415134523
20.970464013232306,2.662703344204596e-06,-0.00044950138759781413,0.00042523079106402155
23.27202478960412,7.16742611098856e-07,-0.00012178866445636312,0.00011510584130590986
25.826187606826746,1.2997920889050584e-07,-2.215116117277583e-05,2.0927541154400972e-05
28.66067616948256,1.575202823403998e-08,-2.6878129945769953e-06,2.5389345156307337e-06
31.80625692794119,1.2712112491654728e-09,-2.1702139314002274e-07,2.0498723175887175e-07
35.297073027306574,6.821476799073323e-11,-1.1648065145420569e-08,1.1001872826707234e-08
39.17101490809261,2.432521550848338e-12,-4.1540224215295663e-10,3.9235305094873784e-10
43.47013158125035,5.762966790873008e-14,-9.841768591919234e-12,9.295643757573865e-12
48.241087041653735,9.069920632799103e-16,-1.5489469696783777e-13,1.4629925431078794e-13
53.535666774107185,9.48224812214174e-18,-1.6193727206019206e-15,1.5295091342192855e-15
59.411339849650396,6.585102227934057e-20,-1.1246024185605982e-17,1.0621947357121707e-17
65.93188271333541,3.0377654511606502e-22,-5.187894433548265e-20,4.900001482396876e-20
73.16807143427206,9.308620102289362e-25,-1.5897263033548473e-22,1.5015072063254835e-22
81.19844993184009,1.8947645719832693e-27,-3.2358797544872285e-25,3.0563101759486997e-25
90.11018251665037,2.561910161238288e-30,-4.375231547115777e-28,4.132435569734012e-28
100.0,2.3009710310205934e-33,-3.9295996577104683e-31,3.711533246860271e-31
