tau,gamma,gamma_lo,gamma_hi
1e-07,1.0602835632445314e-05,-4.37892443559002e-05,0.00012209559914609956
1.1097524964120721e-07,5.4265841871738917e-05,-0.00022370180855961431,0.000622159883513601
1.2315506032928263e-07,0.0001876347403962439,-0.0007700645627150508,0.0021287108416457893
1.3667163564620074e-07,0.0004483850007163519,-0.0018213752998862765,0.004964612793364284
1.5167168884709241e-07,0.0007762753080636475,-0.0030848922726427483,0.00816306883768895
1.6831803533309585e-07,0.0010543067930909975,-0.004024807508420631,0.010114280769609841
1.867913599020781e-07,0.0012333766047309073,-0.004437038936700717,0.01046666163161018
2.0729217795953698e-07,0.001329414673779684,-0.004459795002331941,0.010063467797461765
2.300430119772917e-07,0.001364377700514245,-0.004319304406998639,0.009565970962814816
2.5529080682395163e-07,0.0013481687136006934,-0.004249679169133032,0.009069537035284488
2.833096101839324e-07,0.001287829978947144,-0.004378792416911558,0.008492675931700777
3.1440354715915e-07,0.0012059024027502232,-0.0046804683366181024,0.007886909199892775
3.489101213406774e-07,0.001123712325201161,-0.00503767609669641,0.007359071950326762
3.872038781812557e-07,0.001054920327674954,-0.005296641703580449,0.0070160786081373
4.2970047043208437e-07,0.0010069773755892032,-0.00533751879658419,0.006906186108763117
4.768611697714474e-07,0.0009854278552778955,-0.0052416050840718076,0.006943898878906277
5.291978735958437e-07,0.0009936136151058588,-0.0051850543524243915,0.006962148710098579
5.872786613189477e-07,0.0010271957117983638,-0.00517757401123275,0.006887313902389144
6.517339604882421e-07,0.0010764917079670799,-0.005064999518879865,0.006759723886685426
7.232633896483533e-07,0.0011419002353612528,-0.004798519605124749,0.006645146723951778
8.026433522257174e-07,0.001237244603090629,-0.004543773579577493,0.006612114044528003
8.907354638610439e-07,0.0013641349589468684,-0.004426657256804544,0.006665450480147251
9.884959046625586e-07,0.0014971785270726492,-0.004387097562661756,0.00673560547065213
1.096985797892384e-06,0.001612959443627634,-0.0043015951761820785,0.006771825838879133
1.217382727739662e-06,0.0017313375877064986,-0.004142358406679741,0.006881408073732672
1.3509935211980278e-06,0.0018842517349757645,-0.003950752532822393,0.007194557725540138
1.499268432786047e-06,0.0020699555457122268,-0.0037995217084659688,0.007643575947320294
1.6638168860761274e-06,0.0022552110137543857,-0.0037470189229212533,0.008008241005901176
1.8464249428955464e-06,0.0024231647816633363,-0.0037348417402037247,0.00820866266998551
2.049074689815846e-06,0.002578323586032033,-0.0035998023485193705,0.008341232181534177
2.2739657523579273e-06,0.0027229798655483937,-0.003272271747501662,0.008464985687184397
2.523539170434766e-06,0.002850792525543903,-0.0028822106233627525,0.008536597081829377
2.800503894183631e-06,0.0029520154072403357,-0.0025840771325345586,0.008508741553307091
3.107866187782014e-06,0.003032668481117778,-0.002449612176285927,0.00846101429517557
3.4489622604057595e-06,0.003095130605628982,-0.002467662858240566,0.00849444481003278
3.827494478516315e-06,0.0031377436213577904,-0.002537619878914726,0.008648714263734822
4.247571552536894e-06,0.0031531061882767676,-0.002545492568348412,0.008893420045794806
4.713753134116729e-06,0.0031515100228851644,-0.002520014304647985,0.009165549774453309
5.2310993080562585e-06,0.0031557368576199305,-0.002592350184626037,0.009372125354042186
5.805225516094895e-06,0.003177722379926752,-0.0027856668253248545,0.009441073721683778
6.44236350872137e-06,0.0032185997620709722,-0.002967613144092539,0.009351464204076215
7.149428986597577e-06,0.003279548274504276,-0.00301928389409699,0.00915712872511765
7.934096665797492e-06,0.003377952317289331,-0.002931237614272614,0.009046233472961266
8.804883581643465e-06,0.0035295444585900343,-0.0027425858559857494,0.009171829013819244
9.771241535346501e-06,0.0037462836074001354,-0.0025254059165821453,0.009546473932969262
1.0843659686896109e-05,0.004028506516299829,-0.0023494101386962933,0.010089719428040324
1.2033778407775906e-05,0.004372517364238127,-0.0022516163767520056,0.010723882625596572
1.3354515629298974e-05,0.0047713605446895405,-0.0022185255176777946,0.011381357540102045
1.48202070579886e-05,0.005245478626693473,-0.002144631529908581,0.012080439124379892
1.6446761779946626e-05,0.005827358576809645,-0.001871890339257532,0.012908604223016986
1.8251834943190462e-05,0.006523068251300881,-0.0013877412109672969,0.013971038495260588
2.0255019392306664e-05,0.007298110524721488,-0.0008874543400475297,0.01535396355250132
2.2478058335487252e-05,0.00813402046195188,-0.000520912000615819,0.0170171870105644
2.4945081352303165e-05,0.009072717722427305,-0.00024964639842196996,0.018745749022029613
2.7682866303920665e-05,0.010165279547913192,7.583807446189669e-05,0.02034080819474313
3.072112998861759e-05,0.01145990347317772,0.0006454280542283452,0.021916920636739074
3.409285069746814e-05,0.012976906455292633,0.001580824094322323,0.023711582552377368
3.783462617131933e-05,0.014742367331672602,0.002743508720345427,0.02595061294309863
4.1987070844439056e-05,0.01676322981617024,0.00385720897705537,0.028773939632730533
4.659525668664687e-05,0.019086457119416065,0.00493101201345498,0.03226229674543265
5.170920242896755e-05,0.021760515791956394,0.006250075094202646,0.036390346736859015
5.7384416483024044e-05,0.024822416929037274,0.00798461026611505,0.04107941736480347
6.368249944718586e-05,0.02826535152184839,0.010048536388626524,0.04617539625904099
7.067181273927492e-05,0.03205949339524889,0.012454480242363418,0.05153464483706749
7.842822061337681e-05,0.036200502847023426,0.015501613206653716,0.05717164564476871
8.703591361485166e-05,0.0406286419554512,0.019280289233582146,0.06306996511268483
9.658832241158708e-05,0.04533044110251367,0.023101104227576892,0.06933330352000987
0.00010718913192051276,0.05025237743671672,0.026003521201723893,0.07606849587225109
0.00011895340673703195,0.055555328706017995,0.02809342113544953,0.08376162618949187
0.0001320088400831418,0.061476590551073705,0.030331962619078588,0.09300006269851611
0.00014649713983072864,0.06833482189211419,0.033595541307486425,0.10413208007585191
0.0001625755666443795,0.07641603477571594,0.03832684180425575,0.11699363966928623
0.00018041864093920718,0.08587390392881081,0.0443104847957724,0.13112897774002608
0.00020022003718155845,0.09672261031561048,0.05063222724081966,0.14601998184035825
0.0002221946860939524,0.10910415324369836,0.05691288663947949,0.1619966269054667
0.0002465811075822604,0.12374428903478661,0.06445498377241134,0.18148231236170093
0.0002736439997074672,0.14135994939524948,0.07498143962265852,0.2067824459402289
0.00030367711180354605,0.16245451270798802,0.08926357149324525,0.23792084540994596
0.00033700643292719284,0.18696564390568657,0.10715155401353284,0.2727394448452894
0.0003739937302478798,0.21481358697130526,0.1283379513610728,0.30930603624473657
0.0004150404757850477,0.245347578912047,0.15238736710076245,0.34554161717631443
0.00046059220411451084,0.2779278110411038,0.1798823647534163,0.38089827251496433
0.0005111433483440171,0.3114320655410681,0.21175460819569414,0.4161844616662294
0.0005672426068491978,0.34444920329556783,0.24698716055316172,0.4523002413136222
0.0006294988990221888,0.3755972529492422,0.28109848367609114,0.49008309721932003
0.0006985879746785249,0.4030888682094184,0.3094500109232911,0.5280037537628186
0.0007752597488629464,0.42643222967228683,0.3316213916787627,0.5622460763804307
0.000860346441668451,0.4445169894200422,0.34815758605563474,0.5873673460247837
0.0009547716114208065,0.45693266427613355,0.3594997557809486,0.602484530238267
0.001059560179277617,0.4628460600909175,0.3649647749364713,0.6085661518263741
0.0011758495540521582,0.46272212941880514,0.36470491603257776,0.6071773556104914
0.0013049019780144017,0.4580658621045331,0.3594919133471591,0.5996658743247784
0.001448118227674533,0.4497402549095358,0.3489945714776745,0.5863423939033354
0.0016070528182616384,0.43871562028786787,0.33261701870376315,0.5680890921154096
0.0017834308769319094,0.42530379757206227,0.3109100503579455,0.545330397593905
0.0019791668678535573,0.4111660422859636,0.28895809102657033,0.5208308809724632
0.002196385372416547,0.3974422692480022,0.27202471393957706,0.4969536957002355
0.002437444150122222,0.38553079583581545,0.26283215646545705,0.47647912711532153
0.002704959730463137,0.3760407671392987,0.2609416807761812,0.46117113474909077
0.0030018358135755923,0.36898730519421546,0.26199241902651965,0.45133931531264554
0.003331294787934677,0.3638520456141636,0.2598503249223142,0.44615868583404966
0.0036969127071950323,0.3605396982326714,0.2537165665525036,0.44503929193605923
0.00410265810582719,0.35970471398639076,0.2487586496454893,0.4479811894091055
0.004552935074866948,0.3615717553719738,0.24936640735508767,0.4543188499548325
0.00505263106533568,0.3662717641205398,0.2570306664753385,0.4632155866361843
0.005607169938205458,0.3732605008716055,0.2705950684697654,0.4741279397555672
0.006222570836730231,0.3822948574384841,0.2868154381603772,0.4887627648199928
0.006905513520162331,0.3923597968002792,0.3018950159320563,0.5068784480848053
0.007663410868007463,0.4026191007430257,0.31461337410326573,0.524109313099537
0.008504489341802686,0.4115171675763966,0.3245647116163454,0.5340631428268287
0.009437878277775391,0.41825099942055916,0.3318557171103018,0.537288891853634
0.010473708979594508,0.42205564419217007,0.336102773628659,0.5390952326385736
0.011623224686798541,0.42232872937533855,0.33650733646205305,0.5418973387631861
0.01289890261253308,0.4187687653064085,0.33215646736977583,0.5436713208694688
0.014314589375234785,0.41036407354127313,0.3221191680721638,0.540145460968175
0.015885651294280528,0.3965872170618086,0.3068472330489575,0.5279611487522882
0.01762914118095948,0.3765039186265987,0.28609203054717,0.5055388697555336
0.01956398343517065,0.35107565578468536,0.25975282605405947,0.47759349032440096
0.021711179456945052,0.32115730183394503,0.22740496773150368,0.4479846902435025
0.02409403560239527,0.28793727745802555,0.1903041840416154,0.4143415382647086
0.026738416158399492,0.25265692177865334,0.15120950054301233,0.3712926695626838
0.029673024081888724,0.21678158514928675,0.11374178677240249,0.32041371175560807
0.032929712550971546,0.18264616435022454,0.08255864177224484,0.2705391026719048
0.036543830709572546,0.1516779258515533,0.05936197165686963,0.22722042949246601
0.040554607358408275,0.12508410427287253,0.04290543698183067,0.1914790161294446
0.04500557675700498,0.10311625654706422,0.03150439479028325,0.16190666697189393
0.0499450511585514,0.08542825425429146,0.024300944072314746,0.13696511754171722
0.05542664520663107,0.07140893302073002,0.020675191448321077,0.11560309854877511
0.06150985788580504,0.060528692336673885,0.01928176036720851,0.09802696198437803
0.06826071834272393,0.05231819209739768,0.01861877001090332,0.0847167458916104
0.0757525025877192,0.04610217486318644,0.017933341939491143,0.0748764303014931
0.08406652885618333,0.04116085737413754,0.01703190695140333,0.06696551210636395
0.09329304026284696,0.0370133375091196,0.015893973848029545,0.05997878910174786
0.10353218432956637,0.03349141972877442,0.01452991877480224,0.05374876740834933
0.11489510001873086,0.030473978078318392,0.012917865686423278,0.0483337252641252
0.1275051240713013,0.02789904292820202,0.01110569940474353,0.043944316088288186
0.1414991297434576,0.025683496684400106,0.009288462868445783,0.04053789122017577
0.15702901247293774,0.023815093951151837,0.007956298503761913,0.03778497583878312
0.17426333860096507,0.022257907342650256,0.007476358490544282,0.0353275651367374
0.19338917504552322,0.02096781538041456,0.0076210889230943196,0.03320654704937785
0.21461411978584058,0.019869248842503736,0.007884858358073302,0.03157313662705258
0.23816855519761607,0.018898022247347112,0.008005949252572411,0.030305136187884118
0.2643081486974108,0.017999289692032325,0.007946101839338037,0.029067781591449626
0.29331662783900486,0.017134270601756794,0.007733979165611157,0.027706416913994773
0.32550885998350565,0.016300506984949885,0.0073996193100626835,0.02635349661466832
0.36123426997094304,0.015475820972543191,0.00692214968619502,0.025163019210355412
0.40088063288984643,0.014658773363304652,0.006255664745045473,0.024281562188143074
0.4448782831127585,0.013833405882345058,0.00537560018371644,0.023678100152058325
0.4937047852839004,0.013032062699645422,0.004385326462448837,0.023129576308250403
0.5478901179593945,0.012272310959977493,0.003451227451139636,0.022369404157936965
0.6080224261649427,0.011563031475395865,0.002759907937623377,0.021410030869377525
0.67475440531107,0.010891887506639001,0.0024325524477230996,0.020393206187118026
0.748810385759003,0.010245950773891238,0.002303843477157909,0.019416493833205636
0.8309941949353403,0.009614779278335525,0.0020158393933183047,0.01850997965275531
0.9221978823334341,0.00897277583254494,0.001418088138470985,0.017646254180653045
1.0234114021054528,0.008303042839758318,0.0006575493850204702,0.01678823125980458
1.135733358343105,0.007598024553616572,-8.658661953931555e-05,0.01586257047802259
1.2603829296797273,0.006903115423541324,-0.0007124886302620034,0.014832689075513248
1.3987131026472386,0.006243039232207017,-0.0012327165075101704,0.013718245990038935
1.552225357427048,0.005608192581697526,-0.0018087376265476841,0.012720856432368647
1.7225859653987874,0.004970948937049512,-0.0025924834023395675,0.012021717406477476
1.9116440753857036,0.004337730547990626,-0.0035222563179303783,0.011557182979551512
2.121451784910632,0.003738134046499749,-0.0043849712917528325,0.011107193457669114
2.35428641432242,0.003185243403233931,-0.005041138748309715,0.010551075505958957
2.612675225563332,0.0026809109717135663,-0.0054416633305003435,0.00990272783667453
2.8994228538828812,0.0022084375212387502,-0.005645994176150335,0.009231241464408986
3.2176417502507353,0.0017495470696042021,-0.005817168874492369,0.008647806059857729
3.5707859649004625,0.001293831826700993,-0.0060755579320959105,0.008168139402788804
3.9626886387014784,0.0008588515619865661,-0.006439563480790101,0.007683757256145358
4.397603609302721,0.0004619993054283807,-0.00684563774996645,0.007082386511018492
4.880251583654434,0.00010164763664141742,-0.007183201116168117,0.0064160371000859875
5.415871378079476,-0.00022481266576660552,-0.007335566244084011,0.005816166452390756
6.010276782070388,-0.0005041505856871626,-0.007312742007353115,0.00539397844675855
6.669919663030129,-0.000711449346663316,-0.007220477896811352,0.005211971912078452
7.401959996915652,-0.0008549619592637466,-0.007211647790780783,0.00521599238400624
8.214343584919439,-0.0009675180528181766,-0.0074396549912576675,0.005267548992009597
9.115888299750837,-0.0010521402046778996,-0.007877629913624262,0.005313263605905545
10.11637979766207,-0.0010686132581702844,-0.008275316113491537,0.005432922564326694
11.226677735108158,-0.0009948765359093666,-0.008426937593591017,0.005648479533471268
12.458833642950081,-0.0008763559230937735,-0.008346853275562087,0.005799205565042466
13.826221737646593,-0.0007585910925355598,-0.00798363001971268,0.0056208099934006266
15.343684089300131,-0.0006270818402373012,-0.007018870814822808,0.0048959774940506885
17.02769172225898,-0.0004477014752563588,-0.00516874952098634,0.0035564409165501337
18.896523396912116,-0.0002466536226471998,-0.0028875024537282678,0.001968960884249127
20.970464013232306,-9.702658335010569e-05,-0.001142573020911943,0.0007756287982299102
23.27202478960412,-2.616804556723538e-05,-0.00030890166790062173,0.00020928265838051588
25.826187606826746,-4.750521733221941e-06,-5.613335559000485e-05,3.799923478360915e-05
28.66067616948256,-5.759836048754562e-07,-6.808708147939173e-06,4.607561404669179e-06
31.80625692794119,-4.6491997947794914e-08,-5.496720951725461e-07,3.719204746236321e-07
35.297073027306574,-2.4950232334918367e-09,-2.9500459346168456e-08,1.995955381705106e-08
39.17101490809261,-8.897488326713281e-11,-1.0520423707519202e-09,7.117794057514899e-10
43.47013158125035,-2.1079618570101817e-12,-2.492489032776416e-11,1.686325663374748e-11
48.241087041653735,-3.317588437157872e-14,-3.922788742573716e-13,2.6540035353956957e-13
53.535666774107185,-3.4684169929421835e-16,-4.101138984403375e-15,2.7746640665330396e-15
59.411339849650396,-2.4087010571373656e-18,-2.8481076297328566e-17,1.9269127695538718e-17
65.93188271333541,-1.1111553431622134e-20,-1.313857907382842e-19,8.889021355182023e-20
73.16807143427206,-3.404912149853875e-23,-4.0260538778686826e-22,2.72386192763839e-22
81.19844993184009,-6.930680624352942e-26,-8.195011707889093e-25,5.544406548523017e-25
90.11018251665037,-9.370969780795399e-29,-1.1080471415435401e-27,7.4965893229912745e-28
100.0,-8.416505206052907e-32,-9.951888466438423e-31,6.7330366669292055e-31
