tau,gamma,gamma_lo,gamma_hi
1e-07,1.2254004441122796e-05,-2.7090058797579754e-05,6.0427588608086956e-05
1.1097524964120721e-07,6.285495741445393e-05,-0.00013808388208586035,0.00030943378199333924
1.2315506032928263e-07,0.00021848199776868327,-0.0004727924640454114,0.0010712652845517858
1.3667163564620074e-07,0.0005284398592443856,-0.0011044599528056479,0.002567210808302897
1.5167168884709241e-07,0.0009382056734669055,-0.001821995922537335,0.004469944143453904
1.6831803533309585e-07,0.001332366618209166,-0.002268574773379438,0.0061273759407825005
1.867913599020781e-07,0.0016624043568175034,-0.0023539195363406276,0.007247148400979575
2.0729217795953698e-07,0.0019420869870884617,-0.002251426007778066,0.007897788664664947
2.300430119772917e-07,0.0021905645257988366,-0.002136314458746218,0.008250575470651689
2.5529080682395163e-07,0.002409199542712089,-0.0021034575498410355,0.008483658144749965
2.833096101839324e-07,0.0025942946062817392,-0.0021559986800104955,0.00868835245495326
3.1440354715915e-07,0.0027536211690849075,-0.002210341517592146,0.008868324251337703
3.489101213406774e-07,0.002889890982964019,-0.002186986646224958,0.008978816268993533
3.872038781812557e-07,0.0030027627453968193,-0.0021036269595616254,0.009013410366341528
4.2970047043208437e-07,0.0030846615097013725,-0.0020125577702866976,0.008984541046955603
4.768611697714474e-07,0.003141506032090024,-0.001922450914110394,0.008955817978538085
5.291978735958437e-07,0.0031822056480236677,-0.0018096589346722773,0.008987515488666551
5.872786613189477e-07,0.0032099808584426298,-0.0016803942034871188,0.009039186596007696
6.517339604882421e-07,0.003222611884248202,-0.0015775226139669576,0.008983968115492366
7.232633896483533e-07,0.0032217135279061495,-0.00151544030067605,0.008774156531255125
8.026433522257174e-07,0.00322212561889563,-0.001463227932035167,0.00852096823520101
8.907354638610439e-07,0.003223962019491383,-0.0013918275736225195,0.00831256374117491
9.884959046625586e-07,0.003210114673129141,-0.001313470317040171,0.008145823633230586
1.096985797892384e-06,0.003163161578071974,-0.00125472658149785,0.007983286236509502
1.217382727739662e-06,0.003107869634322747,-0.0012347421210247562,0.00786585916376441
1.3509935211980278e-06,0.0030800446475214593,-0.001256979316199134,0.00785684553170515
1.499268432786047e-06,0.0030865946810940564,-0.001299637291202227,0.007961956283175718
1.6638168860761274e-06,0.003108727127762327,-0.0013279455846192186,0.008124499088211777
1.8464249428955464e-06,0.0031373372637058202,-0.0013385778020227523,0.008282922547101714
2.049074689815846e-06,0.0031820286229995564,-0.0013597468129807574,0.008392755641820977
2.2739657523579273e-06,0.003251444686598684,-0.0013938567316547185,0.008452912948980562
2.523539170434766e-06,0.003351370915788385,-0.001396662599353225,0.008536767112394211
2.800503894183631e-06,0.0034794635650908794,-0.001327656518148185,0.00869391309426959
3.107866187782014e-06,0.003634882238887341,-0.0012005542763646995,0.008919304601965529
3.4489622604057595e-06,0.003813744766353893,-0.0010492487654135858,0.009175788149876572
3.827494478516315e-06,0.004024642017864476,-0.0008997045701922374,0.009473799295280479
4.247571552536894e-06,0.00427626952579331,-0.0007606369079220348,0.009835138913732123
4.713753134116729e-06,0.004579005758318572,-0.0006106079642311758,0.01027063396151233
5.2310993080562585e-06,0.00493720681896785,-0.0004127247939307309,0.01076848317934795
5.805225516094895e-06,0.005354244600950273,-0.0001588870185867218,0.011331402116730536
6.44236350872137e-06,0.005830045140301455,0.00011807592586830453,0.011985614536600141
7.149428986597577e-06,0.006361127391195051,0.0004012862515369754,0.012747423923972566
7.934096665797492e-06,0.006946908372760814,0.0007136841154621353,0.013626570505787387
8.804883581643465e-06,0.007581694811588758,0.0010957257739019428,0.014602950125113154
9.771241535346501e-06,0.008274838826803296,0.0015793063869155661,0.015664054145448632
1.0843659686896109e-05,0.009023263362294415,0.002159429265529592,0.016791003494344356
1.2033778407775906e-05,0.009829849928152666,0.0027585243302833233,0.0180398547493297
1.3354515629298974e-05,0.010684065820615533,0.0032803338118767714,0.01942765966210368
1.48202070579886e-05,0.011604148674671886,0.0037854262309959747,0.020820493187852604
1.6446761779946626e-05,0.012612249355600753,0.004457448504597892,0.021958667698823115
1.8251834943190462e-05,0.013709038675513536,0.005374921347721253,0.022842258497890906
2.0255019392306664e-05,0.01486187800783747,0.006429530697282944,0.023842269331222535
2.2478058335487252e-05,0.01603292490897711,0.007493196926561572,0.02521533424221871
2.4945081352303165e-05,0.017226374495577883,0.008504768878137583,0.02688531613690269
2.7682866303920665e-05,0.018418621935896426,0.00941181898317562,0.028613924356377426
3.072112998861759e-05,0.01958580740421285,0.010168418544340897,0.030286554775941686
3.409285069746814e-05,0.020668382613495608,0.010739070245394876,0.03182707020393438
3.783462617131933e-05,0.02168401473855023,0.011228810753095604,0.03328776698632269
4.1987070844439056e-05,0.02265745757444151,0.011778244444566021,0.03470714159644794
4.659525668664687e-05,0.023597198473488987,0.012353534954580195,0.03603779819466356
5.170920242896755e-05,0.024475334138673494,0.012762752267876893,0.03714520879455999
5.7384416483024044e-05,0.02526223398937881,0.012997016596547138,0.03801035164378821
6.368249944718586e-05,0.025979175300891263,0.013365195053037533,0.038860352319932144
7.067181273927492e-05,0.02661430973062657,0.014058159378755817,0.03979467947667415
7.842822061337681e-05,0.027186066210336687,0.01488567490092872,0.04070496044791593
8.703591361485166e-05,0.02767779208194563,0.01550230414302709,0.041370863718898865
9.658832241158708e-05,0.02815611849897,0.0157560408458461,0.04184988750584725
0.00010718913192051276,0.028680292648388166,0.015663617953574835,0.042294250251014166
0.00011895340673703195,0.029329299184433003,0.01549909674746066,0.04290407757939247
0.0001320088400831418,0.030158820279090986,0.01563491541638271,0.04387842567232529
0.00014649713983072864,0.031197934346692234,0.016096533003103097,0.04543934182312831
0.0001625755666443795,0.03246160916985944,0.01654515292475509,0.04780173157034914
0.00018041864093920718,0.03396725288108572,0.016798225218199903,0.05087794801537154
0.00020022003718155845,0.03580828346810985,0.017121404692253067,0.054228030140803414
0.0002221946860939524,0.03806722699846453,0.017898452306583358,0.05754755328274137
0.0002465811075822604,0.040881262867252,0.01945086350688222,0.0612639474382296
0.0002736439997074672,0.04431583731969532,0.021918418493123083,0.0658724205764285
0.00030367711180354605,0.04840769347664065,0.025131707513436644,0.07146311529601558
0.00033700643292719284,0.05307821523249656,0.028773649250282526,0.07779331699491644
0.0003739937302478798,0.05830705079584265,0.03286425729155931,0.08503018021090603
0.0004150404757850477,0.06400388578598697,0.037577957597309176,0.09348103972441556
0.00046059220411451084,0.07006537888972013,0.042782271739403285,0.10294966651798225
0.0005111433483440171,0.07630853173982657,0.047875819858202905,0.11245834170406546
0.0005672426068491978,0.0825313980795369,0.0524919283654598,0.12109409518808209
0.0006294988990221888,0.08866673695505384,0.056924398351603615,0.12864411725288383
0.0006985879746785249,0.09457619947943305,0.061461953225726146,0.13505232276083148
0.0007752597488629464,0.1003542327226344,0.06610555433462521,0.14079258219837243
0.000860346441668451,0.10602242952855045,0.0705638513631805,0.14626547255198283
0.0009547716114208065,0.11188990667304674,0.07479404569971201,0.15212486339994968
0.001059560179277617,0.11817329297297124,0.07878738126746797,0.15883148795255525
0.0011758495540521582,0.1249439402811985,0.08262245270586313,0.16656752500459052
0.0013049019780144017,0.13202187477036922,0.08631978089430589,0.1751400422999458
0.001448118227674533,0.13935520251475694,0.08979070022939195,0.1844160824977234
0.0016070528182616384,0.14722419742901738,0.09291423832026616,0.1946365193901853
0.0017834308769319094,0.15584980057688322,0.09555641901076332,0.20622438620034075
0.0019791668678535573,0.16565875798672966,0.09811388180136565,0.22029195872287408
0.002196385372416547,0.17707271244298706,0.10164326091862022,0.23778317738222185
0.002437444150122222,0.19115957193502955,0.10848392037886148,0.2596345050990433
0.002704959730463137,0.20880069245106628,0.11998126499436315,0.28637283837109834
0.0030018358135755923,0.23041278654269978,0.1331208925866727,0.31896300921804166
0.003331294787934677,0.25584824194996,0.14324274229155098,0.3583910746617139
0.0036969127071950323,0.28592885146989494,0.1535585456499804,0.40659174374572815
0.00410265810582719,0.32191410101895424,0.17487980084571522,0.46554189821432784
0.004552935074866948,0.3639520533063996,0.21231492353464396,0.5359939905908254
0.00505263106533568,0.4097788581136027,0.25910148401338573,0.6158772327974117
0.005607169938205458,0.45522757526663743,0.30463326298301036,0.7007304123886728
0.006222570836730231,0.4948439914159461,0.3392196688762323,0.7830624633794233
0.006905513520162331,0.5210642297052918,0.3550174984913954,0.8477082840554532
0.007663410868007463,0.5275129572810919,0.3508888325181758,0.8724600629597266
0.008504489341802686,0.5079164301072852,0.3269971358214401,0.8354689663711732
0.009437878277775391,0.46237176681647063,0.28171600138067315,0.7457364934919526
0.010473708979594508,0.3963068614870745,0.2137807302148689,0.6358415060138766
0.011623224686798541,0.3167460046146472,0.13096349436966767,0.5271517525891892
0.01289890261253308,0.2341517966626585,0.05341681793204544,0.4264466735024597
0.014314589375234785,0.15739089672540396,-0.004414952661602777,0.3330971449025122
0.015885651294280528,0.09482524038651038,-0.039962223395583,0.24719191549993255
0.01762914118095948,0.05132436772710124,-0.055580784928752,0.17061293021050425
0.01956398343517065,0.025160482328389324,-0.05585843477426496,0.10881054349868276
0.021711179456945052,0.011938823427221874,-0.04583598205810393,0.06693546610921386
0.02409403560239527,0.006451490134563728,-0.03227074937139258,0.04242559885089829
0.026738416158399492,0.004117847332797009,-0.021992662857010355,0.028704403199919442
0.029673024081888724,0.0026655487980161412,-0.01683753412036326,0.020730293057402354
0.032929712550971546,0.0016496942276977373,-0.014565746793475446,0.015853503378230042
0.036543830709572546,0.0010490799962963742,-0.013045200095683968,0.012740224325016132
0.040554607358408275,0.000716419123646462,-0.011575343672620494,0.010656874486192756
0.04500557675700498,0.0004965053824946916,-0.010152131836898688,0.009205092753500968
0.0499450511585514,0.0003239703748423887,-0.009009880983091825,0.008230450797929308
0.05542664520663107,0.000181885287077561,-0.008293207195692525,0.007637047154277291
0.06150985788580504,5.841632620142294e-05,-0.00788156826298523,0.007262851293458147
0.06826071834272393,-5.471727398753727e-05,-0.007553888592798215,0.0069306088871317235
0.0757525025877192,-0.00015252217572895964,-0.007233984822632018,0.006581443842292823
0.08406652885618333,-0.00022161546097480112,-0.006956405442971852,0.006244962762651639
0.09329304026284696,-0.00026378537583191875,-0.006747194840135881,0.005973442632790688
0.10353218432956637,-0.00029555534322329036,-0.0066050494788747385,0.00581911247689504
0.11489510001873086,-0.0003294118185530125,-0.006528989284987882,0.005775662573841871
0.1275051240713013,-0.0003676655850612264,-0.00654084932462119,0.005775320509295189
0.1414991297434576,-0.00040793121141706874,-0.006631749052618861,0.005749850569335208
0.15702901247293774,-0.00044706531186370675,-0.006743638789998389,0.0056867367523588215
0.17426333860096507,-0.000481089143243063,-0.006787020648133384,0.005578984162702509
0.19338917504552322,-0.0005074482362242499,-0.0067020390767056634,0.005418678513136028
0.21461411978584058,-0.0005243209938395139,-0.006456417665687962,0.005205843736972577
0.23816855519761607,-0.0005353011788255846,-0.006111399068727095,0.005010917252963017
0.2643081486974108,-0.0005461887789916278,-0.0057836554867776065,0.0049349999691140015
0.29331662783900486,-0.0005587796032006918,-0.005534681437660204,0.004973994626895781
0.32550885998350565,-0.0005711811427493657,-0.005368100083078822,0.005009049364490666
0.36123426997094304,-0.0005847733610605638,-0.005268229276895887,0.004934725003411032
0.40088063288984643,-0.0006070292472330637,-0.005229076060262229,0.004726036717114631
0.4448782831127585,-0.0006380105913751516,-0.005223888612755164,0.004400153164134352
0.4937047852839004,-0.0006629239761772346,-0.005203347831594482,0.004034093685754694
0.5478901179593945,-0.0006685624899826911,-0.005127336845452707,0.0037139457270465113
0.6080224261649427,-0.0006687217194781124,-0.0050427802633028415,0.0035085360085896646
0.67475440531107,-0.0006865871582727892,-0.005019984291296645,0.003449755203203251
0.748810385759003,-0.0007222656565652858,-0.005054215929796903,0.003484991657637691
0.8309941949353403,-0.0007555892293260231,-0.005082520586933416,0.0035069194881039794
0.9221978823334341,-0.0007764918836383834,-0.005100886778127751,0.003475778199671429
1.0234114021054528,-0.0007911274796369048,-0.0051881579443864515,0.00344675917468553
1.135733358343105,-0.0008035297170854994,-0.005388468030874501,0.00348555543830007
1.2603829296797273,-0.0008094173474771704,-0.005661663802720383,0.003634834969055968
1.3987131026472386,-0.0008036009895401315,-0.005928132519385967,0.0038870770942941294
1.552225357427048,-0.0007915238149604206,-0.006125871959693524,0.004166925136970769
1.7225859653987874,-0.0007785335047981163,-0.006212840947270345,0.004381748175470334
1.9116440753857036,-0.0007610328755933961,-0.006225052885423621,0.004516681624466111
2.121451784910632,-0.00073025680813586,-0.006223501127525969,0.004596942306785057
2.35428641432242,-0.0006878741524858564,-0.006226918316575681,0.004642881751244148
2.612675225563332,-0.0006459566756303019,-0.006211311781816961,0.0046597420447599775
2.8994228538828812,-0.0006118229593374367,-0.006164685187342641,0.004656035158657473
3.2176417502507353,-0.0005848106517103561,-0.006116134075367773,0.004659123944001879
3.5707859649004625,-0.0005570837728482173,-0.006092411730140588,0.004688456373095525
3.9626886387014784,-0.0005171690293604598,-0.0061158883785675565,0.004757444583350275
4.397603609302721,-0.0004584839182297252,-0.0061749172340210936,0.004858956808971222
4.880251583654434,-0.00039292513935852534,-0.006225804725205267,0.004973526263947189
5.415871378079476,-0.0003396083474892493,-0.006209874114447536,0.005071104836655872
6.010276782070388,-0.00030923602926775825,-0.00612838103818705,0.0051481036285539305
6.669919663030129,-0.00030320160682811745,-0.006024822015228966,0.005210474766530497
7.401959996915652,-0.00031118875035775423,-0.005957990721364495,0.005261025708255084
8.214343584919439,-0.00031495187306541586,-0.0059787915747014945,0.005289657811152807
9.115888299750837,-0.000306623591663423,-0.0060493469599924524,0.005264290758914663
10.11637979766207,-0.0002940320478474921,-0.006042180539325103,0.0051495123904410755
11.226677735108158,-0.00028229950589635233,-0.005897045567257384,0.004952327567710363
12.458833642950081,-0.0002639755469039173,-0.005731941473974932,0.004767218655161663
13.826221737646593,-0.00022857567698667048,-0.0055618770621419875,0.004585856936887896
15.343684089300131,-0.0001765707087347609,-0.005046420192810688,0.00412936929142468
17.02769172225898,-0.0001165315644104589,-0.003815251245645973,0.0031063645547935296
18.896523396912116,-6.093084374752019e-05,-0.002163261783506892,0.0017567722331629395
20.970464013232306,-2.3341055378829644e-05,-0.0008619649812100101,0.0006991794440268979
23.27202478960412,-6.221026727082829e-06,-0.0002337355277109138,0.0001894997406117264
25.826187606826746,-1.123740929573141e-06,-4.2526978435931674e-05,3.447145796305443e-05
28.66067616948256,-1.3597019998278586e-07,-5.160938159344475e-06,4.1829971766131785e-06
31.80625692794119,-1.096601036482089e-08,-4.16732342168659e-07,3.377547157592842e-07
35.297073027306574,-5.882983694601127e-10,-2.236756008645232e-08,1.8128291215417497e-08
39.17101490809261,-2.0976390379320616e-11,-7.976966616509595e-10,6.46507575815872e-10
43.47013158125035,-4.969376434933409e-13,-1.8899214500995292e-11,1.531717313196883e-11
48.241087041653735,-7.820812386139886e-15,-2.9744579170178984e-13,2.410695185916574e-13
53.535666774107185,-8.176297817755556e-17,-3.1096991261146587e-15,2.520302576154499e-15
59.411339849650396,-5.678147844571282e-19,-2.1595868596069516e-17,1.750269493384289e-17
65.93188271333541,-2.6193764761015584e-21,-9.962373917050293e-20,8.074154562810413e-20
73.16807143427206,-8.026547726526527e-24,-3.05277000580741e-22,2.4741629329224397e-22
81.19844993184009,-1.6337991331544192e-26,-6.213897828027391e-25,5.036146022733813e-25
90.11018251665037,-2.2090587659994175e-29,-8.40180848985549e-28,6.8093707704347455e-28
100.0,-1.9840586720222286e-32,-7.546056363326287e-31,6.115813709787367e-31
