tau,gamma,gamma_lo,gamma_hi
1e-07,4.7885090454105706e-05,1.3861818140146836e-06,0.00018326387571926343
1.1097524964120721e-07,0.0002450664020507718,7.26126364917179e-06,0.0009353258833785178
1.2315506032928263e-07,0.0008472783982864417,2.6490376442577203e-05,0.0032124033054623676
1.3667163564620074e-07,0.002024401857547713,7.092221913713041e-05,0.007559010704524152
1.5167168884709241e-07,0.0035050946892524444,0.00015068469687973322,0.01267197704382739
1.6831803533309585e-07,0.004769727507582881,0.00027323156169887765,0.01628098446690406
1.867913599020781e-07,0.00562736312513251,0.0004375687258109745,0.017760081049898888
2.0729217795953698e-07,0.006203097942632912,0.0006262655445386194,0.018068221480803066
2.300430119772917e-07,0.006642078049395054,0.0008020240124347419,0.018089807409603184
2.5529080682395163e-07,0.00700707521362563,0.0009123272460731487,0.018148618286990416
2.833096101839324e-07,0.007302871383186644,0.0009595628382888049,0.018299802406385474
3.1440354715915e-07,0.007527605183733181,0.0010395811182110927,0.018605520843011862
3.489101213406774e-07,0.007668277068723482,0.0012063875835525005,0.01904313519130595
3.872038781812557e-07,0.007743415126102539,0.0013435694731423718,0.019456452560336943
4.2970047043208437e-07,0.007770124450488698,0.0012956510155360255,0.019622738970761368
4.768611697714474e-07,0.0077752397163964385,0.0011055657944016757,0.019525908248967962
5.291978735958437e-07,0.007774215401053622,0.0009512038148478023,0.0192803334177272
5.872786613189477e-07,0.007759257529355216,0.0009159096150448767,0.019003780482207314
6.517339604882421e-07,0.007705481742400588,0.0009576905407070505,0.018775766023916122
7.232633896483533e-07,0.007599771460314177,0.001004068691717927,0.018547627887282363
8.026433522257174e-07,0.00747127325867761,0.0009942412753380613,0.01818391084224752
8.907354638610439e-07,0.007338927770083435,0.0009080437405970543,0.01761792811162518
9.884959046625586e-07,0.0072165998984710595,0.0007925858828387719,0.017055017155889973
1.096985797892384e-06,0.007097853396182016,0.000704516547095049,0.016685814522679157
1.217382727739662e-06,0.006986270859182056,0.000659291183151767,0.016481657886859978
1.3509935211980278e-06,0.006886337214249437,0.0006462888771215396,0.016299455577185238
1.499268432786047e-06,0.006824397217083888,0.0006546703275992875,0.016169296342025324
1.6638168860761274e-06,0.006827748035777701,0.0006757002420770136,0.016240440505979985
1.8464249428955464e-06,0.006875219353884387,0.0006950203147099644,0.016529259371849694
2.049074689815846e-06,0.006900649554995925,0.0006900301930326923,0.01687329473266385
2.2739657523579273e-06,0.006865250750986534,0.0006439373213190914,0.017086507808064814
2.523539170434766e-06,0.0068068845283717205,0.0005582335052888107,0.017073801290138555
2.800503894183631e-06,0.006755978653069781,0.00045393492922940595,0.01681662801674587
3.107866187782014e-06,0.006711998015412395,0.00038198353878253586,0.016480059604795795
3.4489622604057595e-06,0.006653509986938402,0.00038722060171058584,0.016230556824362783
3.827494478516315e-06,0.006597593977720651,0.0004578173612411104,0.016132824571429533
4.247571552536894e-06,0.006570630527674296,0.0005465439163630414,0.0161466566986633
4.713753134116729e-06,0.006577423947965126,0.0006155396023607374,0.0162061603216549
5.2310993080562585e-06,0.006602359744720452,0.0006431066897807044,0.016246344815171454
5.805225516094895e-06,0.006646790430552413,0.0006346591006592842,0.016281051703455878
6.44236350872137e-06,0.00674278345852206,0.0006200749990292176,0.016437056267069265
7.149428986597577e-06,0.006902162114463156,0.0006163872551662506,0.016827210051451776
7.934096665797492e-06,0.0071103139095848875,0.000617843544127116,0.017524817661382815
8.804883581643465e-06,0.007344415508720147,0.0006347626863035973,0.018484959831275013
9.771241535346501e-06,0.007620365304395586,0.0007271763143226348,0.019521950980526847
1.0843659686896109e-05,0.007941314806884633,0.0009387564559301703,0.020377270551027303
1.2033778407775906e-05,0.008272992950233364,0.00119165830592907,0.020963730883155257
1.3354515629298974e-05,0.00855441511075556,0.0013443907641265864,0.0213088533213203
1.48202070579886e-05,0.008800038044287951,0.0013705131131622368,0.0215887940326294
1.6446761779946626e-05,0.009084780239918802,0.001353765802831014,0.022048682483190828
1.8251834943190462e-05,0.009440126747622376,0.0013472937964604207,0.02272742650273047
2.0255019392306664e-05,0.009835602983135162,0.0013368299308345512,0.02344613226028364
2.2478058335487252e-05,0.010244615343020836,0.001312164031327915,0.024152346084656495
2.4945081352303165e-05,0.010714630442867452,0.001316701284156329,0.025193111201880714
2.7682866303920665e-05,0.011288090753572155,0.001388491003634382,0.02684469659315572
3.072112998861759e-05,0.011979669220986824,0.0015024702272080758,0.02894613755054112
3.409285069746814e-05,0.012775746183476657,0.0016099910805970645,0.031141979743736763
3.783462617131933e-05,0.013715962177984188,0.0017144126354697836,0.03349429741070178
4.1987070844439056e-05,0.01485905442642435,0.0018542529292426952,0.03638348431670846
4.659525668664687e-05,0.01626019464057598,0.002046210152041409,0.040263439521994154
5.170920242896755e-05,0.01794135521659705,0.0022728858892145367,0.04543063799531621
5.7384416483024044e-05,0.019904377896132364,0.0025152097951041488,0.05163303452307113
6.368249944718586e-05,0.022145850810570904,0.00276886959202116,0.057900263846290885
7.067181273927492e-05,0.02472989104357212,0.0030541685486848245,0.06348315162098828
7.842822061337681e-05,0.027890220763166128,0.0034278170644942854,0.0687188711834576
8.703591361485166e-05,0.03186566114668645,0.003926102096572383,0.07452439947098126
9.658832241158708e-05,0.03682166872732827,0.004535331836582956,0.08233047604315863
0.00010718913192051276,0.04284512996064499,0.005352780643773577,0.093202368786881
0.00011895340673703195,0.050151652765400935,0.006874463812448213,0.10664679144823548
0.0001320088400831418,0.05894364658247648,0.009707311062105692,0.12090809379173094
0.00014649713983072864,0.06938631211289259,0.013603654030705497,0.13545813265727183
0.0001625755666443795,0.08143804512198635,0.01752630571775352,0.15113274018376768
0.00018041864093920718,0.09511809210773983,0.0216975852513626,0.16871438746104178
0.00020022003718155845,0.1105306431633863,0.02847338992606176,0.1884504328592062
0.0002221946860939524,0.12786046006426996,0.040101222526833624,0.21083240506920714
0.0002465811075822604,0.14751887580698356,0.05665195932660033,0.2376160594923932
0.0002736439997074672,0.16944710540847582,0.07675477412206622,0.26943443725462063
0.00030367711180354605,0.19294783596417275,0.0982096695648371,0.30362235272539423
0.00033700643292719284,0.21642719297130714,0.11826982924135204,0.33502316838249413
0.0003739937302478798,0.2389926774011245,0.13564288785851658,0.36144212461990777
0.0004150404757850477,0.2599546176792765,0.15029931511683947,0.383018585836767
0.00046059220411451084,0.2793779636779092,0.16426037940875682,0.40136723046111766
0.0005111433483440171,0.29794223846066353,0.18119060597588443,0.41926452456565916
0.0005672426068491978,0.3159166719885618,0.2024415431831895,0.43882356779422216
0.0006294988990221888,0.3333457952050539,0.225093798151685,0.46153639348181
0.0006985879746785249,0.3493885632453461,0.24527341868316507,0.4858693793909245
0.0007752597488629464,0.3635534789898601,0.26194612290894426,0.5070270359566713
0.000860346441668451,0.37487368571478863,0.2750389048331798,0.5191501932382576
0.0009547716114208065,0.38374162953410945,0.28524311171752365,0.5231277678825578
0.001059560179277617,0.3906927697020455,0.2928732816720469,0.5234351345169814
0.0011758495540521582,0.39636280673859203,0.2983684436375202,0.5236345296539321
0.0013049019780144017,0.40117756275489985,0.3021550661515967,0.5254413614676814
0.001448118227674533,0.4050972882654765,0.30441971888990227,0.5288024844078032
0.0016070528182616384,0.40828442934313475,0.30563160192759414,0.5331899721697313
0.0017834308769319094,0.41043172511928233,0.30583130810945874,0.5376588353115487
0.0019791668678535573,0.4121001890709231,0.30554037254389793,0.5428434452004457
0.002196385372416547,0.4131381248434647,0.3044400972431047,0.5483401187082312
0.002437444150122222,0.4137143743675844,0.3020365979959046,0.5532869129696629
0.002704959730463137,0.413375608327282,0.2976262072376746,0.5555773345123188
0.0030018358135755923,0.41243788991071667,0.2924820630159059,0.554830779472593
0.003331294787934677,0.4113319356189713,0.2887431181760438,0.5515229565093791
0.0036969127071950323,0.41048569099299276,0.2868574808144521,0.5470278714471887
0.00410265810582719,0.41042749663185285,0.2858493572183794,0.5436856831453064
0.004552935074866948,0.41113278913427664,0.2858832664973161,0.542674064787648
0.00505263106533568,0.41277394717555876,0.2896482748793447,0.5445526624234056
0.005607169938205458,0.4147247856059383,0.29767072567069486,0.5479950761369738
0.006222570836730231,0.41673732681108067,0.3059520678025789,0.551226240271201
0.006905513520162331,0.41791844436646053,0.3095213024754309,0.5519827917579606
0.007663410868007463,0.4182787878896971,0.30863487322556293,0.5511363983627298
0.008504489341802686,0.4173842442268759,0.3053533588145322,0.5498860482919994
0.009437878277775391,0.41480209538728074,0.2994279166332434,0.5483123224162729
0.010473708979594508,0.40983586081872175,0.28861732482300695,0.5453779821187507
0.011623224686798541,0.40240487804897734,0.27329708563350336,0.5417056917979997
0.01289890261253308,0.3935419573557369,0.25780866784181616,0.5400382382232326
0.014314589375234785,0.383184569133542,0.2448632239567083,0.5395378247072793
0.015885651294280528,0.3706539590391636,0.2339715000783044,0.5347954529575426
0.01762914118095948,0.3542739304793515,0.22227515754803398,0.5198843851136886
0.01956398343517065,0.33351779751814115,0.20628845496431714,0.4951711143200797
0.021711179456945052,0.3079372218641769,0.18268495683654631,0.4629605366453812
0.02409403560239527,0.2786072020099087,0.15147030105893577,0.42651741686218325
0.026738416158399492,0.24723373981031146,0.1155387849107316,0.38854707823178847
0.029673024081888724,0.21519640392610676,0.08023245715152386,0.3501972574078283
0.032929712550971546,0.1840622367365474,0.052750149367305224,0.312135154069221
0.036543830709572546,0.1547639549639008,0.035487248778167446,0.2748610046205856
0.040554607358408275,0.12853737703468965,0.02530829173754084,0.24020055030384757
0.04500557675700498,0.10594788368778803,0.018665961496376237,0.2088008887552094
0.0499450511585514,0.0872052104900272,0.01404762565993683,0.1803377914759344
0.05542664520663107,0.07208323448250638,0.011007999845380045,0.1542018174175801
0.06150985788580504,0.05998729467852285,0.009067856188988525,0.13108960847445567
0.06826071834272393,0.05027307848344791,0.0077224605164350315,0.11205781659243878
0.0757525025877192,0.042462417399625425,0.006713656100331693,0.09700113496430916
0.08406652885618333,0.0362990523984214,0.005981130447675309,0.08505410312659882
0.09329304026284696,0.031475701180089244,0.005472128200931544,0.07515874586525297
0.10353218432956637,0.02769380186160031,0.005100959130567871,0.06653376657974053
0.11489510001873086,0.024688689730984238,0.0047905894947961655,0.05885718039074945
0.1275051240713013,0.022323479373172802,0.004496050633651889,0.052524280040874526
0.1414991297434576,0.0204645430533291,0.004170912590318899,0.04777788577880621
0.15702901247293774,0.018986682351805416,0.0037787084359032527,0.044390877969801026
0.17426333860096507,0.0177550068769617,0.0033367366659839337,0.04181810394587544
0.19338917504552322,0.0166970836521175,0.002999782296784105,0.039484300855358444
0.21461411978584058,0.015764862137962875,0.0029251728852474593,0.03695309472536328
0.23816855519761607,0.014947054069461545,0.003024547070464547,0.03440345923480635
0.2643081486974108,0.014248406035633694,0.003040050144110466,0.0323914553470448
0.29331662783900486,0.013649692399115686,0.0028576129810402333,0.031067938560091417
0.32550885998350565,0.013121054183325157,0.0025600433964006976,0.0301235754284197
0.36123426997094304,0.0126204569036909,0.0022659348995382003,0.029212454613557714
0.40088063288984643,0.01213821482315275,0.002070955693491574,0.02822191797574883
0.4448782831127585,0.011662499202307466,0.001989845759412407,0.027131600429585862
0.4937047852839004,0.011222362389924133,0.0019265225884703605,0.026066698063285834
0.5478901179593945,0.01083289943813184,0.001795749446475339,0.025091308706697485
0.6080224261649427,0.010500524225793782,0.0016730822454072108,0.02415423172687783
0.67475440531107,0.010213690867082808,0.0016978586380259355,0.023153943385924202
0.748810385759003,0.009973766521379055,0.0018665960609035393,0.02219212452959983
0.8309941949353403,0.009787684544822385,0.002041115092079263,0.02152051625319651
0.9221978823334341,0.009638952506736758,0.0021056200977486845,0.021202904068964624
1.0234114021054528,0.009497270502139728,0.002015860047161551,0.021080469761518283
1.135733358343105,0.009338831283781587,0.0018126004797939866,0.020966871543277376
1.2603829296797273,0.009188079963139145,0.0016379265547088035,0.020797734531312312
1.3987131026472386,0.00905194593393446,0.001592296517846477,0.020516267757508987
1.552225357427048,0.00891849587374421,0.0016282538439550843,0.020103642392810227
1.7225859653987874,0.008757227086442314,0.0016513357469594438,0.019537527428213686
1.9116440753857036,0.008581986233244522,0.0016536199817844966,0.018909167073179106
2.121451784910632,0.008421281830149587,0.0016754802421963299,0.01834619774449297
2.35428641432242,0.008287822234685922,0.0017054404419548873,0.01791425224569629
2.612675225563332,0.008171888820514806,0.0016760121620567636,0.017617260515164403
2.8994228538828812,0.008043737208727598,0.0015495891330387984,0.01742315809940709
3.2176417502507353,0.007874360872630059,0.0013501432826314174,0.01731253064410291
3.5707859649004625,0.007647942961126728,0.0011165292025014854,0.01727081199650007
3.9626886387014784,0.007406435117426384,0.0008914407256545032,0.017334164565720685
4.397603609302721,0.007184753333929695,0.0007011566223025398,0.01745632298117581
4.880251583654434,0.006999956126136076,0.0005456965754372836,0.017476016600815478
5.415871378079476,0.006846986461606146,0.0004260004086028537,0.01720874178800871
6.010276782070388,0.006731183978926403,0.00037487706379618765,0.016742754432480935
6.669919663030129,0.00665660579117655,0.00043232575806810363,0.01632120676009082
7.401959996915652,0.006609295487723419,0.0005597366442622278,0.01605984500480267
8.214343584919439,0.006556534118832497,0.0006426875578324036,0.015923343432890234
9.115888299750837,0.0064621619557152345,0.0006171697526681757,0.015835318400387866
10.11637979766207,0.0063055001856852635,0.0005144759760385682,0.015760630669455673
11.226677735108158,0.0060600877134072825,0.0003926302616489825,0.01566800677274828
12.458833642950081,0.005706047662108937,0.00030248235886430093,0.015518836282049637
13.826221737646593,0.0051668397201995,0.00026476292257527793,0.014988587372174844
15.343684089300131,0.0043069438497295755,0.0002449168534247887,0.013311072416775314
17.02769172225898,0.0030522095523463997,0.00019347109548433432,0.009869080749961255
18.896523396912116,0.0016693998054967485,0.00011282052371829923,0.005532915472744511
20.970464013232306,0.000654072224878863,4.5564637858474596e-05,0.0021928887040875713
23.27202478960412,0.00017608062026427682,1.242801842065856e-05,0.0005932683308084893
25.826187606826746,3.194064910533357e-05,2.2667195301006925e-06,0.00010783883328219655
28.66067616948256,3.8714447852232356e-06,2.753557226966252e-07,1.3081851333867111e-05
31.80625692794119,3.1245267708587775e-07,2.2243256254081805e-08,1.0561573243905776e-06
35.297073027306574,1.6767083475288306e-08,1.194073373684132e-09,5.668419530491306e-08
39.17101490809261,5.979171280298251e-10,4.258719456824817e-11,2.021481600005296e-09
43.47013158125035,1.4165520060651529e-11,1.0090128425360482e-12,4.7892904417391115e-11
48.241087041653735,2.2294141271131475e-13,1.5880548460576544e-14,7.537605244387675e-13
53.535666774107185,2.3307673405747825e-15,1.6602670702368237e-16,7.880307755314523e-15
59.411339849650396,1.618640007041222e-17,1.1530045829673667e-18,5.4726185532367965e-17
65.93188271333541,7.466929387407151e-20,5.318920619220477e-21,2.524568835990522e-19
73.16807143427206,2.2880901700877455e-22,1.629877196890253e-23,7.736034802655786e-22
81.19844993184009,4.657395228355139e-25,3.317607141129296e-26,1.5746658781761002e-24
90.11018251665037,6.297261644190859e-28,4.485735354843489e-29,2.1291049934997333e-27
100.0,5.655864474929734e-31,4.0288483741637453e-32,1.9122485571179857e-30
