tau,gamma,gamma_lo,gamma_hi,ftp,ftp_lo,ftp_hi
1e-07,803.1239715235486,-19642.405274849407,22246.388828971143,1.4039005969418695e-09,1.5038856399677318e-10,3.664440139984774e-09
1.0884019160690054e-07,1422.4815390440685,-18507.476571455274,22945.543472354984,1.4046907030287607e-09,1.395452086110273e-10,3.671087306772063e-09
1.1846187309026848e-07,1897.6180157164008,-18092.367228086485,23934.94679587723,1.3997388046515255e-09,1.3232598787970672e-10,3.7082679016282283e-09
1.2893412965257157e-07,2230.4407239488783,-17879.28710830967,24928.03626454002,1.386262147945762e-09,1.3404038554338812e-10,3.74654668800964e-09
1.4033215376054846e-07,2433.521230053295,-17573.41257878746,25703.07852177619,1.3632615318202048e-09,1.4298747101011035e-10,3.758997374520898e-09
1.5273778503907124e-07,2531.159990710469,-17300.233835745457,26186.241423352683,1.3347206150913806e-09,1.4897008398453816e-10,3.732688447425075e-09
1.6624009789266136e-07,2545.7198092607446,-17274.764370310313,26327.714231065016,1.3043959585067582e-09,1.4191640188617503e-10,3.6586672538321877e-09
1.8093604107387167e-07,2504.184202593353,-17473.82950933844,26110.422123643737,1.275733664398816e-09,1.237028435433762e-10,3.5422273618030497e-09
1.969311337907422e-07,2435.527447416733,-17621.131534136493,25533.87377005667,1.2517906741484853e-09,1.07675210916769e-10,3.4031983438100423e-09
2.143402233514859e-07,2345.796676951191,-17475.56739528801,24588.345665966935,1.23177815548405e-09,1.0473271249610559e-10,3.2607888159430468e-09
2.3328830978641583e-07,2207.771668286728,-17123.94472119439,23368.245093170586,1.2120612827440689e-09,1.1283708526816379e-10,3.137978541869734e-09
2.539114433680347e-07,1976.5982008089934,-16863.802952169633,22031.275912389676,1.1867269834039536e-09,1.2108327998730995e-10,3.055498583193962e-09
2.7635770147361577e-07,1639.8257213301001,-16905.171057686995,20717.516779345697,1.1524939052055574e-09,1.215750457551675e-10,3.0148412029688594e-09
3.007882518043102e-07,1253.1363765025003,-17266.097112732965,19591.123159252977,1.1140577034892805e-09,1.1491363667195072e-10,2.9956424493751413e-09
3.273785095948577e-07,890.446321087392,-17831.08836544217,18772.44744240471,1.0780875174425336e-09,1.0572962627571163e-10,2.9678551035800433e-09
3.563193971228584e-07,569.6774963391098,-18468.448340696617,18252.51089633811,1.048759517130996e-09,9.726756167362603e-11,2.9208826912046258e-09
3.8781871456107196e-07,248.0828534794994,-19050.628851526762,17902.057609926902,1.0284586280765822e-09,9.048905989046372e-11,2.8711935871835166e-09
4.221026320156903e-07,-122.6638027143783,-19441.01911268453,17546.34303410289,1.0185025910849701e-09,8.579350782802725e-11,2.839359024570556e-09
4.5941731346364764e-07,-540.0062611161961,-19561.22204776413,17085.710953925227,1.023002721833409e-09,8.501766603199885e-11,2.8402963487746493e-09
5.00030684249109e-07,-951.8085538308679,-19374.485793831194,16487.154122559616,1.047892229061819e-09,9.15736770927199e-11,2.880651826519381e-09
5.442343548300272e-07,-1315.1135469280914,-18909.314433747237,15745.748951043906,1.095156753059366e-09,1.0837941687911481e-10,2.9557146599344786e-09
5.923457145875806e-07,-1629.5524721809468,-18365.59185224488,14931.117273030914,1.15983723742697e-09,1.3589482571420728e-10,3.0511864375656173e-09
6.44710210732387e-07,-1917.7619168318765,-18006.97336878309,14143.71708867637,1.231221164583208e-09,1.7129333308862107e-10,3.1458623938282885e-09
7.017038286703837e-07,-2205.3311212034505,-17985.682347952694,13471.39054933941,1.3000792659394237e-09,2.067764302734197e-10,3.2298954568227768e-09
7.637357916378027e-07,-2510.0852478629304,-18306.633953454806,13008.598042360543,1.3605411220201764e-09,2.2828517140298847e-10,3.3125902151601056e-09
8.312514989890632e-07,-2831.5995718910717,-18858.081409686998,12807.301734011267,1.4065974861848106e-09,2.2291474682608617e-10,3.4045549809818932e-09
9.047357242349293e-07,-3145.464683969429,-19467.755789453167,12829.896573295719,1.435455369214024e-09,1.9224502380520892e-10,3.5100147100046546e-09
9.847160957933784e-07,-3402.148236508266,-19918.12794886417,12957.654784252723,1.4463216116476226e-09,1.5260346393765271e-10,3.621527010750255e-09
1.0717668854455034e-06,-3562.783026427792,-20053.456634351212,13068.347360544292,1.4375135916821042e-09,1.2055900038403759e-10,3.7162429344310953e-09
1.1665131316981962e-06,-3643.4972047605215,-19954.555866136478,13129.934116648257,1.4109143236729754e-09,1.0334522165614117e-10,3.7618067843868324e-09
1.2696351276599729e-06,-3690.5384768201225,-19839.356886972433,13160.93844937541,1.3694240467496505e-09,1.003560626309032e-10,3.7195968908479878e-09
1.3818733056536336e-06,-3730.49160160833,-19856.028365158254,13170.278228371983,1.314919752685142e-09,1.0580031441220699e-10,3.577972477814775e-09
1.5040335536380252e-06,-3755.570184997068,-20033.62460417033,13160.036394785597,1.2522346833868713e-09,1.0933055234168836e-10,3.3832612723467927e-09
1.6369930016117019e-06,-3739.3914010826275,-20324.144135893435,13129.826100767992,1.1872580028858225e-09,1.0081584818683366e-10,3.2017185653603113e-09
1.7817063195457325e-06,-3680.582346442362,-20728.472947257353,13148.054394123214,1.1287690446789416e-09,7.938425046172968e-11,3.074253442250964e-09
1.939212572065831e-06,-3614.320911378305,-21319.2182021759,13376.678529252249,1.0907209363400868e-09,5.5325755507357714e-11,3.0119136867380053e-09
2.1106426791015547e-06,-3567.275958655789,-22090.503316968523,13951.282755138436,1.0826405404293328e-09,4.035457635425569e-11,3.003998810012486e-09
2.297227536071156e-06,-3524.858475399573,-22850.273254940555,14878.165388348318,1.1008257983220355e-09,3.842927087624549e-11,3.027327448846614e-09
2.5003068519063265e-06,-3438.9916428692172,-23238.115631974306,16027.127657404164,1.1301375460041426e-09,4.6805347795953905e-11,3.0505738040619144e-09
2.7213387683753086e-06,-3279.6982322506537,-23002.40657460261,17221.562337910033,1.1562104915740833e-09,6.226249146436508e-11,3.0499836396472703e-09
2.9619103297725534e-06,-3085.0025126841083,-22277.80346196181,18297.488537839337,1.1750404229598651e-09,8.420865163486022e-11,3.027757304551777e-09
3.2237488781490268e-06,-2928.5860154457214,-21396.898615755654,19083.340898158804,1.188184872874886e-09,1.1340096215533038e-10,2.9972838057843733e-09
3.508734455902715e-06,-2854.121504525305,-20598.76672008725,19497.200833590246,1.1989490604107058e-09,1.487627953697373e-10,2.967116165512426e-09
3.8189133047818546e-06,-2859.9794558919616,-19986.556453051544,19590.7265143097,1.2122203997868752e-09,1.849528172115862e-10,2.941181768069018e-09
4.156512558225988e-06,-2930.4753378921105,-19582.30958084376,19399.662248799523,1.229794930713578e-09,2.1382299232514424e-10,2.9208170423647538e-09
4.523956232538058e-06,-3077.8700860079703,-19443.567998969327,18876.79502588691,1.2490069912707145e-09,2.2748190409298633e-10,2.9193965798348763e-09
4.923882631706742e-06,-3344.950354452494,-19689.251072675535,17903.850053653587,1.2631223609691565e-09,2.190484251037117e-10,2.9620168129030323e-09
5.359163290848514e-06,-3763.0245344922564,-20377.861005291456,16394.04993613361,1.2658272398731482e-09,1.8718310971495647e-10,3.0579212988742234e-09
5.832923594286212e-06,-4311.313583822228,-21419.785729917297,14508.754788147478,1.2600720547875512e-09,1.4389548191239457e-10,3.1808651757965643e-09
6.348565216305224e-06,-4917.95209075214,-22573.922256125792,12603.12174801316,1.2542614685657287e-09,1.0958377501979052e-10,3.277635912956058e-09
6.909790545715645e-06,-5505.961057841127,-23567.561055193048,10973.227798062186,1.2536994672002451e-09,9.539875160683435e-11,3.314202647819005e-09
7.520629269592407e-06,-6011.332866411678,-24172.880463394544,9796.583151859712,1.2593765169943795e-09,9.478571402537795e-11,3.307038945219309e-09
8.185467307069021e-06,-6380.607804388931,-24206.028303347728,9145.453242028401,1.2691333812190894e-09,9.436257675688358e-11,3.294289294147672e-09
8.909078300934142e-06,-6621.9117822885255,-23726.242629295244,8935.288666538234,1.284006544879911e-09,9.078468863329513e-11,3.306882371852032e-09
9.69665789314552e-06,-6813.534859779421,-23103.05394756383,8927.178031632815,1.310241180615484e-09,9.462999260235289e-11,3.363346466579178e-09
1.055386103036523e-05,-7027.2589655667,-22703.257322022764,8858.620221665264,1.3512116423271945e-09,1.174328382743034e-10,3.4653619238124006e-09
1.1486842567375548e-05,-7278.62942056331,-22665.401169406083,8598.208568775648,1.4020039973349067e-09,1.569061917312161e-10,3.5985102847407477e-09
1.250230145991456e-05,-7526.025848129334,-22917.355476821656,8148.6980235910705,1.4488509950713681e-09,1.9752345048855207e-10,3.731793251537664e-09
1.3607528864243332e-05,-7719.439628932325,-23328.05237511545,7608.058685601105,1.4777050021951158e-09,2.2535966658763297e-10,3.830516767801666e-09
1.481046048880677e-05,-7850.513203084435,-23839.902939802505,7202.620498948288,1.483856028217002e-09,2.3787942856445437e-10,3.8731248322428545e-09
1.6119733573881587e-05,-7922.8447024289935,-24401.332768515993,7192.170896663372,1.4674007287261413e-09,2.391157123836403e-10,3.844467906798553e-09
1.7544748908334598e-05,-7924.308649635835,-24899.159892295254,7635.071126996843,1.4322770756557057e-09,2.3196238567656989e-10,3.747693901844284e-09
1.9095738328781007e-05,-7828.201185476164,-25154.8886043187,8296.145035735792,1.389505265460506e-09,2.1624101662938243e-10,3.618450460967613e-09
2.078383818579755e-05,-7596.674156675316,-24990.385099707564,8856.357263110409,1.349444257847568e-09,1.9188333333397773e-10,3.495419035411487e-09
2.2621169304690265e-05,-7233.8410254332175,-24485.09289479348,9218.520840210364,1.3173077872149066e-09,1.6556358408532181e-10,3.397781240557548e-09
2.4620924014946305e-05,-6796.237968588661,-24004.95283201997,9538.364547631892,1.2937976708694766e-09,1.5124232894503111e-10,3.327133991600281e-09
2.6797460873256894e-05,-6327.9090979325065,-23877.60508109099,10026.706545025167,1.2753301494034436e-09,1.580214652194287e-10,3.27737326507243e-09
2.916640776023707e-05,-5837.64598082757,-24196.394884262903,10826.377355570969,1.2576591417861157e-09,1.780162001077193e-10,3.2519792163804764e-09
3.174477409109193e-05,-5302.675099762928,-24848.320532194797,12001.829088500832,1.2360185345525435e-09,1.910494225207974e-10,3.25802460255347e-09
3.455107294592218e-05,-4680.897271961435,-25668.251646240456,13565.946929726651,1.207343205763272e-09,1.8336463782800602e-10,3.2869268096656337e-09
3.760545399658176e-05,-3938.454268085908,-26539.817497850534,15483.721814604196,1.175090318479598e-09,1.5839624021536856e-10,3.3087008049988685e-09
4.092984818452442e-05,-3044.5761664281986,-27343.49922207276,17691.508309414745,1.1446509876370856e-09,1.283938710614856e-10,3.2848508058026746e-09
4.4548125188449885e-05,-1981.131127760631,-27989.54984256551,20182.259718946436,1.1198950150271698e-09,1.0201438292997233e-10,3.2102740614642075e-09
4.848626481239088e-05,-765.1211915640066,-28417.944550094886,22988.080808261457,1.1038107787822556e-09,8.166071462713818e-11,3.127611960939297e-09
5.277254352483543e-05,584.6431392652331,-28514.404752332215,26098.627635785982,1.0967194871237083e-09,6.666528522175549e-11,3.0812467982076924e-09
5.743773748826587e-05,2064.7919008116664,-28164.769177150578,29428.747637509565,1.0974257575570411e-09,5.6090161695247863e-11,3.0791923298613317e-09
6.251534353689725e-05,3670.6730687205395,-27267.023156101473,32791.6193859075,1.1034005015975005e-09,4.9710998752108844e-11,3.0949312210033207e-09
6.804181968927093e-05,5418.3379828218,-25813.356204100335,36101.620292552085,1.1111746940356852e-09,4.7589623102138436e-11,3.099656038519874e-09
7.405684692262442e-05,7345.196223726514,-24123.641709818086,39604.941524051246,1.1194161834470264e-09,4.958886512374123e-11,3.0926496722010073e-09
8.060361408861346e-05,9481.321878326939,-22743.561748775053,43725.532841177825,1.1269887827407924e-09,5.540318839142258e-11,3.088399192618836e-09
8.772912801613357e-05,11854.700168490408,-22180.58513365124,48892.57579572023,1.132912396994772e-09,6.459502965536205e-11,3.0945651424461268e-09
9.548455102782303e-05,14476.600057327656,-22874.231426407903,55498.04104457483,1.138091109264257e-09,7.636190519568281e-11,3.1072886943677784e-09
0.00010392556829367131,17387.849691561605,-25154.82821792684,63936.86872246957,1.1426175430640047e-09,8.959619480586349e-11,3.1124127932148588e-09
0.00011311278765939226,20801.354058071964,-29097.284126992752,74810.52218487918,1.1470583371233884e-09,1.0309441373296333e-10,3.10034127540349e-09
0.00012311217482038908,25120.381085269884,-34614.505908230916,89034.03932858842,1.1528266978669738e-09,1.1505298739842174e-10,3.0703492937800187e-09
0.00013399552696593398,30891.526871877766,-42086.0437318646,108164.33932078174,1.159612508376335e-09,1.22792126607362e-10,3.02453450143468e-09
0.00014584098829439863,38854.628372981584,-52973.00831681597,134949.30610157654,1.1670831785423789e-09,1.2294457001020615e-10,2.9772161502308833e-09
0.00015873361110102104,50204.74940718475,-69402.57342194993,173625.012852955,1.1739945909683263e-09,1.1197690571572919e-10,2.9505289948103783e-09
0.0001727659664669038,67337.35169143004,-92511.82239640952,230335.8631331547,1.1784240022810587e-09,8.967500261000047e-11,2.959838243696589e-09
0.00018803880893409166,95126.38476697318,-120212.75190664352,313652.4546812519,1.1808580507721501e-09,6.276080603743954e-11,3.0120342483061625e-09
0.0002046617999391992,143145.2485450734,-145058.94415497722,435358.6596379997,1.1821280405979925e-09,4.148742313720776e-11,3.1032141155154298e-09
0.00022275429519995587,228739.06943902033,-151140.56760813104,610409.7636407486,1.1847003607470953e-09,3.282819001399839e-11,3.220499129911956e-09
0.00024244620170823307,376875.352416885,-113189.91728832452,854411.1512412793,1.194110729948858e-09,3.878469997653595e-11,3.342744322366799e-09
0.00026387891048289345,608353.8348347672,-10501.906067620614,1178095.9255535575,1.2134320825647918e-09,5.788705090669174e-11,3.4450277750927056e-09
0.0002872063117797831,918231.2270307034,149412.7256355418,1575356.851580507,1.2404765025152341e-09,8.450029406223469e-11,3.518100433582196e-09
0.0003125959000482281,1273042.0265871699,333804.85702221806,2020853.514731313,1.2674696798431e-09,1.0909164339107349e-10,3.564556475516808e-09
0.00034022997656780714,1638707.27104218,523122.5586468697,2496687.925965242,1.2854520155872312e-09,1.233367800718701e-10,3.583775528630955e-09
0.0003703069584005145,1995404.2269020686,736051.9620756444,3007584.349577456,1.29116893536276e-09,1.24190252251443e-10,3.5743311778342177e-09
0.00040304280305680546,2325149.8511279398,1004252.8554677912,3553406.8287607064,1.2841849434131427e-09,1.1269904027171835e-10,3.5304775620315836e-09
0.00043867255910485034,2607034.4626730024,1314925.4188973096,4090181.5851112525,1.265975071636285e-09,9.358525317188453e-11,3.450813952677037e-09
0.00047745205385661313,2812785.9681479093,1578265.2165509448,4504494.238825581,1.2428379587465393e-09,7.62903593530334e-11,3.3521147542607174e-09
0.0005196597302486203,2909116.0141774514,1685747.1145127935,4664858.7415471235,1.2211436203934236e-09,7.043237422732449e-11,3.255253769810039e-09
0.0005655986461065008,2890001.5162523068,1621119.42691977,4549977.696195767,1.205659910652696e-09,7.815844605142471e-11,3.1786764863623685e-09
0.0006155986501483515,2781825.951006293,1475649.3423513044,4267965.753803115,1.1999357397102518e-09,9.313052924600325e-11,3.1393541144185906e-09
0.0006700187503509591,2611416.461259969,1344891.0307194572,3934807.8071348704,1.2028978018644078e-09,1.0706797017452667e-10,3.1399834436499255e-09
0.0007292496916841451,2397381.599696989,1245885.8880991468,3596611.098773649,1.2085916091493215e-09,1.1518718724357594e-10,3.162933348993709e-09
0.0007937167617217558,2152179.1969906976,1131382.551856873,3241648.189792916,1.2077339808085522e-09,1.1624910525170363e-10,3.175692509696996e-09
0.0008638828442740454,1884846.345611764,962585.8339836731,2851476.150727002,1.19619626235472e-09,1.1233378243960117e-10,3.158985866892486e-09
0.0009402517429670142,1615318.0731092638,759189.9804062683,2447707.048701174,1.1839191696298284e-09,1.0966806460414324e-10,3.132964330714459e-09
0.0010233717986325214,1368485.7729693179,574043.2603170106,2075707.4777086412,1.1850431589166115e-09,1.150333534374975e-10,3.1328428813565685e-09
0.0011138398264826206,1157087.9440734198,438605.3125002106,1763606.3100418511,1.2021964683316493e-09,1.2862949940008276e-10,3.172552227661854e-09
0.0012123054013376529,982453.6651160249,348655.9955614472,1517407.0174288591,1.2225233000083004e-09,1.4170425929694607e-10,3.235516873100361e-09
0.0013194755216767086,840045.9586093613,284718.5144130951,1329477.6313646748,1.2283887913968327e-09,1.4369887122197674e-10,3.2898442229015375e-09
0.0014361196859990803,723900.4310171516,231098.02268609375,1184179.0538652565,1.2155599884378932e-09,1.3188812120540628e-10,3.317281177718344e-09
0.0015630754179458174,630007.5252171782,180874.7902576208,1063762.5826732519,1.1939989651753406e-09,1.1200688556827468e-10,3.3154613611744558e-09
0.0017012542798525892,555153.6143213812,134539.8842816635,954797.4783253482,1.1747736390844403e-09,9.202171300570342e-11,3.2885094070752704e-09
0.0018516484179121578,497037.52760868124,100368.41727778531,855888.9350364817,1.1655094123002903e-09,7.910990577952568e-11,3.255307265387604e-09
0.002015337685941735,454047.5051992702,90233.42289562532,773575.5429013884,1.1697337947010333e-09,7.901990203047321e-11,3.2406539158686854e-09
0.00219349739890506,423156.2449833116,106920.37554649262,710134.3254242522,1.1876124562840483e-09,9.294396166461104e-11,3.259857065119486e-09
0.002387406771860647,399539.89777831064,137001.3405881632,659886.0824564163,1.2177506504869797e-09,1.1550021629367919e-10,3.3170220741498784e-09
0.0025984581049292525,377800.84419424995,160861.75843240108,613928.4816131928,1.2558193234770963e-09,1.3877129938013722e-10,3.401906744624133e-09
0.002828166780230035,354970.2107536351,168338.2037979898,568645.5074474042,1.2959031289941977e-09,1.5820744571385742e-10,3.492952964387004e-09
0.00307818214256508,331364.96806574,161308.9251348398,528175.5346461245,1.3303923751562796e-09,1.72923348767568e-10,3.5590478360550002e-09
0.0033502993419772366,307754.49497518776,145505.48905386872,496751.69362499873,1.3509378017454506e-09,1.8198448109841733e-10,3.5725414346289855e-09
0.0036464722232127525,284236.4122485108,125377.68970362667,472768.96618438495,1.355451503583035e-09,1.8197250114673177e-10,3.540502492953751e-09
0.003968827354637166,260376.61168187982,103643.38596043133,449759.89207171527,1.3461576628852696e-09,1.6760435037219352e-10,3.4955524201838686e-09
0.004319679297334174,235637.7463908113,81801.56611949,422348.05005868495,1.3254807059741288e-09,1.375767593622887e-10,3.4600540202438127e-09
0.004701547224022139,210795.8969946738,61312.39888212372,391518.2623791687,1.2986215779089327e-09,1.004684969730125e-10,3.435380531287898e-09
0.00511717300711461,187277.74665185614,43756.44547797193,361589.18223595765,1.2700464120617796e-09,6.974264956204306e-11,3.40712994659549e-09
0.005569540905800136,165723.14824421838,29834.088875485275,334789.5069808354,1.24096503731082e-09,5.243707722982084e-11,3.3674972433944662e-09
0.006061898993497585,146145.90484771383,19317.034658619326,310320.09182689356,1.2110570557358638e-09,4.5870881682920705e-11,3.3283605939476564e-09
0.006597782479539547,128175.94837354196,11561.491658156807,285847.14243610896,1.178569724792652e-09,4.353952165840106e-11,3.3023268004275477e-09
0.007181039092537356,111598.46617182734,5668.133009663076,260284.38926149308,1.1453710240553877e-09,4.095852580338522e-11,3.2916866264096717e-09
0.007815856707684091,96726.72520283156,686.1726818990186,234604.86640431953,1.1175096695596649e-09,3.673851910849273e-11,3.287420160175726e-09
0.008506793416364171,83772.82601845179,-4002.133790091102,210010.15178601097,1.0978941812496704e-09,3.164025879126609e-11,3.2741626881219757e-09
0.009258810253973964,72648.28118003975,-8368.432210597904,187574.739544949,1.0838321598796476e-09,2.836946196723022e-11,3.244726832217524e-09
