freq,Zreal,Zimag,sigma_re,sigma_im
1000000.0,0.992576574261238,0.0014362859512904477,0.032627491805386405,0.00276999171286875
794328.2347242822,0.9928925253267135,0.0002874571161677196,0.032637763480440195,0.0027692394507748456
630957.344480193,0.9932670425628102,-0.0007161628893411994,0.03264996809636884,0.00276934447735383
501187.2336272725,0.9936936877749201,-0.0016050747725096408,0.0326638888405716,0.002770024954216539
398107.17055349686,0.9941645061375834,-0.002408573425578508,0.03267926249345489,0.0027711083600937634
316227.7660168379,0.9946722814893691,-0.0031561992085411073,0.032695852412342734,0.002772508491152158
251188.6431509582,0.9952121267934653,-0.003878062060660038,0.03271350006929292,0.0027742101813414102
199526.2314968879,0.9957822509644729,-0.004604702542795086,0.03273214974781062,0.0027762594680578023
158489.3192461114,0.996384044731065,-0.005366962023024283,0.03275185099792381,0.002778759468779728
125892.5411794166,0.997021694782899,-0.006196132766586617,0.032772745807558214,0.0027818730079440484
100000.0,0.9977015227906342,-0.007124568755809759,0.03279504716447406,0.00278583371243336
79432.82347242821,0.9984312764632787,-0.008186903141364282,0.03281901664829875,0.002790968471094143
63095.7344480193,0.9992196678917539,-0.00942194296980681,0.032844950742749165,0.002797735717869303
50118.72336272724,1.00007648990091,-0.010875171379507269,0.03287318658010111,0.002806785743649155
39810.71705534969,1.0010135892408543,-0.012601619375225059,0.032904136206293545,0.0028190507842618486
31622.776601683792,1.0020468202650732,-0.014668744889112649,0.03293835370986717,0.002835873398941427
25118.864315095827,1.0031988939170793,-0.017158952198228977,0.032976633192257854,0.002859180997069644
19952.623149688792,1.004502878881139,-0.020171510189024053,0.03302013072280546,0.0028917109029287136
15848.93192461114,1.0060060741356982,-0.02382380803105737,0.03307050221034817,0.0029372813700375383
12589.254117941662,1.0077740450357946,-0.02825204298918952,0.03313005131933879,0.003001086955932123
10000.0,1.009894768943905,-0.03361153434597848,0.03320188640940469,0.0030899726749278114
7943.282347242814,1.0124830564469645,-0.04007687779571242,0.03329009255830576,0.0032126178132381054
6309.57344480193,1.0156856931170481,-0.04784207429830629,0.03339993371514381,0.003379551229414687
5011.8723362727205,1.0196881083353944,-0.05712053024975253,0.0335381114039331,0.0036029395004562427
3981.0717055349687,1.024723792745945,-0.06814424887552399,0.03371311840644912,0.0038961351647643612
3162.2776601683795,1.031087859561075,-0.08116040096120396,0.033935727301737974,0.004273011463812676
2511.8864315095802,1.0391555208385252,-0.09642186451322701,0.034219624282216046,0.004747095004219247
1995.2623149688789,1.0494043579454198,-0.1141668355305977,0.03458212144348595,0.005330426823063225
1584.8931924611124,1.0624360780293625,-0.13458212924656643,0.03504475685540144,0.006031989186553183
1258.9254117941662,1.078989475652297,-0.1577461769498281,0.03563344691644642,0.006855516155355161
1000.0,1.0999324415683667,-0.18355160543483853,0.03637773696233549,0.007796621391234078
794.3282347242813,1.126218335557819,-0.21161420363432615,0.03730867007761497,0.008839448128664764
630.957344480193,1.1587932239485967,-0.24118521108178628,0.03845495534588123,0.009953461387763884
501.187233627272,1.198448948394136,-0.27109510668611336,0.03983755975394618,0.011091461648214333
398.10717055349687,1.245634605114892,-0.29976327509404077,0.04146353694860576,0.012190153007445689
316.227766016838,1.3002614552238139,-0.32530133253249,0.04332055693339829,0.013174344992445288
251.18864315095797,1.3615528439754025,-0.34571599287831045,0.04537380282387564,0.013965012715271436
199.5262314968879,1.4279915046291571,-0.35918722845021733,0.04756647399751904,0.01449026404277877
158.48931924611125,1.4974004599436825,-0.3643704960489199,0.049824316796373405,0.01469720923347728
125.89254117941664,1.5671654355066886,-0.360654812181245,0.052063739072763154,0.014562070027367103
100.0,1.6345696404652508,-0.34830563156912053,0.054202237077086525,0.01409576470653207
79.43282347242804,1.6971719079535652,-0.3284406952829061,0.05616908261053471,0.013342957740880304
63.09573444801929,1.7531335814890343,-0.30283237864571805,0.05791380563806225,0.012374317095358956
50.11872336272725,1.8014081116510863,-0.2735878252538877,0.05941042303649219,0.011273955663737633
39.81071705534969,1.8417532232328717,-0.2427998163411939,0.06065666228579104,0.010125656735407327
31.622776601683796,1.8745880776919797,-0.2122637447171727,0.061669065456285414,0.009001597278189315
25.118864315095767,1.9007650391890354,-0.18331865061822178,0.06247601848300126,0.00795584676301458
19.95262314968879,1.9213355845226432,-0.15681636882069414,0.06311090219263728,0.007022829292333449
15.848931924611108,1.937365921216152,-0.13318249697571122,0.06360683505691576,0.006219372052989376
12.589254117941664,1.9498221828530813,-0.11252061667692688,0.0639934806382078,0.0055485022857464155
10.0,1.9595180072081655,-0.09472077942922821,0.06429565965281614,0.005003551369477999
7.943282347242805,1.9671054801060852,-0.0795504721713467,0.06453319766979458,0.004571795885082382
6.30957344480193,1.9730901424931464,-0.06672094805555413,0.06472144576407511,0.004237389850277616
5.011872336272715,1.9778557572757598,-0.05593051262843201,0.06487206157973528,0.003983594186067984
3.981071705534969,1.9816902374110623,-0.04688985605452798,0.06499380573266861,0.0037943674593145377
3.1622776601683795,1.9848085135258466,-0.039334970618575896,0.06509323576774245,0.0036553794100049534
2.5118864315095766,1.9873709382650877,-0.033032330080303,0.06517526106760536,0.0035545211931998226
1.9952623149688788,1.9894974136574044,-0.027779698928334734,0.06524356748360437,0.0034820158038577098
1.584893192461111,1.9912780596117856,-0.02340464666487366,0.06530093794498355,0.003430254819207724
1.2589254117941662,1.9927812522939532,-0.019761903575049648,0.06534949456071822,0.0033934871459931726
1.0,1.994059664170455,-0.016730178958710342,0.06539088114587703,0.0033674610128234975
0.7943282347242805,1.9951547646074803,-0.014208797032569727,0.06542639966276627,0.0033490839780936543
0.6309573444801929,1.9961000963703244,-0.012114352048583105,0.06545710972277374,0.0033361323410292056
0.5011872336272715,1.996923521337421,-0.010377533034822178,0.06548389665672641,0.0033270189005004144
0.3981071705534969,1.9976485892164084,-0.008940293225206014,0.06550751259721745,0.0033206158416391163
0.31622776601683794,1.9982952415991408,-0.0077535409404467385,0.06552859701987762,0.0033161240546929374
0.2511886431509577,1.99888014201942,-0.006775439104237971,0.0655476858196565,0.0033129787149571363
0.1995262314968879,1.9994169264491712,-0.005970243973897834,0.06556521826969605,0.0033107817399276825
0.1584893192461111,1.9999165606237979,-0.005307476530121807,0.06558154786058705,0.003309253482564399
0.12589254117941662,2.0003878161938293,-0.004761188030700153,0.06559695739915965,0.0033081979360851154
0.1,2.0008377352032745,-0.0043091727477014615,0.0656116740389029,0.0033074774765127876
0.07943282347242805,2.001271917079808,-0.003932133283524526,0.06562587869179304,0.003306994565010524
0.0630957344480193,2.001694538269639,-0.0036129241393947987,0.0656397067434054,0.003306678759900309
0.05011872336272714,2.002108138317484,-0.003336023979541213,0.06565324104860844,0.0033064778770771695
0.039810717055349686,2.00251329135248,-0.0030873271039425247,0.06566650098521792,0.00330635233912355
0.031622776601683784,2.002908296579486,-0.002854273658790299,0.0656794318944364,0.003306271853973125
0.02511886431509577,2.003289015550317,-0.0026263066251386562,0.06569189919076386,0.003306213693761791
0.019952623149688792,2.003649016249722,-0.002395615845269799,0.06570369258705282,0.0033061619950220445
0.01584893192461111,2.003980230998017,-0.00215802573746909,0.06571454739091674,0.003306107549577985
0.01258925411794166,2.004274282628507,-0.0019136839303452663,0.06572418800245441,0.0033060474529558238
0.01,2.0045243617881856,-0.0016670348853575303,0.06573238974500133,0.0033059839315090957
