freq,Zreal,Zimag,sigma_re,sigma_im
1000000.0,0.9966764112162179,0.003113867649130152,0.003276779272923137,0.0028575208964045145
794328.2347242822,0.9968941872442626,0.0020200752155294594,0.0032770274830253264,0.00285760765013881
630957.344480193,0.9971398939667903,0.0011269684733111879,0.003277417331334465,0.002857830829929154
501187.2336272725,0.9974040661451304,0.000397014112578285,0.0032778962748513376,0.0028581388378131306
398107.17055349686,0.9976769524067644,-0.00020412440484504852,0.0032784235794258093,0.0028584939682576686
316227.7660168379,0.9979502403734515,-0.0007086089721817024,0.0032789698322184817,0.0028588702830869388
251188.6431509582,0.9982179117887987,-0.001146675220546699,0.0032795159965189422,0.0028592516888070636
199526.2314968879,0.9984763305016456,-0.0015467480641442287,0.0032800518179412464,0.0028596299464866207
158489.3192461114,0.9987238545377254,-0.001935779910619891,0.0032805739586830463,0.002860002837268648
125892.5411794166,0.9989602664399341,-0.0023399464800574164,0.0032810843398054317,0.002860372788054874
100000.0,0.9991862501669156,-0.0027856922511553597,0.0032815891245458924,0.0028607462198018186
79432.82347242821,0.9994030388312571,-0.003301043256387364,0.0032820986417371133,0.002861133811939874
63095.7344480193,0.9996122529501174,-0.003917109222920156,0.0032826284060650432,0.0028615518393552376
50118.72336272724,0.9998158883398899,-0.004669754244799963,0.003283201377679079,0.0028620248019296758
39810.71705534969,1.0000164009020085,-0.005601481312864205,0.003283851778424705,0.0028625897699586862
31622.776601683792,1.0002168522054895,-0.006763634152579268,0.003284631129774039,0.002863303232507165
25118.864315095827,1.0004211191876677,-0.008219071889058422,0.003285617720304205,0.002864251817708051
19952.623149688792,1.0006342365700385,-0.010045508392556435,0.003286931544050411,0.0028655691626778513
15848.93192461114,1.0008630186121217,-0.0123397154967642,0.0032887579905396783,0.002867462570495138
12589.254117941662,1.0011171780005395,-0.015222775528237809,0.0032913853502547405,0.0028702550555189366
10000.0,1.0014112238539423,-0.01884655913975542,0.0032952637647217136,0.0028744512010125418
7943.282347242814,1.0017675068582834,-0.023401621902416115,0.0033010969631858053,0.0028808392866493788
6309.57344480193,1.0022209429507662,-0.029126760313139956,0.0033099833452484646,0.002890647630205547
5011.8723362727205,1.0028262679686777,-0.03632050938600404,0.0033236296996573427,0.002905779695057893
3981.0717055349687,1.0036692400446763,-0.04535479334981416,0.003344667888519082,0.002929158282271642
3162.2776601683795,1.0048840520364064,-0.05669057519073644,0.003377107801021281,0.002965208266849386
2511.8864315095802,1.006680324362279,-0.07089446770850212,0.003426948203456886,0.003020487232079335
1995.2623149688789,1.009384397832922,-0.0886535427211061,0.003502921203586314,0.003104413345596781
1584.8931924611124,1.013501099849062,-0.11078233815761959,0.003617239288858857,0.0032299181251976227
1258.9254117941662,1.019802954291489,-0.1382101203208428,0.0037860284902466214,0.003413668167483123
1000.0,1.0294516163257164,-0.17192632325699445,0.0040288930217018265,0.003675306924684758
794.3282347242813,1.0441458542117794,-0.2128471706894406,0.004366865419169902,0.004035067788780219
630.957344480193,1.0662620129844211,-0.26155071075545416,0.004818003089175343,0.004509190436557757
501.187233627272,1.0988944500768163,-0.3178277994137752,0.005390256297596587,0.005102892405712163
398.10717055349687,1.1456159152856655,-0.38005478287994815,0.006072215342165641,0.005801467306638198
316.227766016838,1.2097182454458104,-0.4445703332937468,0.006824448402422829,0.006562064415649833
251.18864315095797,1.2928232726090068,-0.505533368138605,0.0075774011334578265,0.007312036761787347
199.5262314968879,1.393255235976274,-0.5559138550563331,0.008243612892487234,0.007961707121013404
158.48931924611125,1.5052638494206354,-0.5898296727339641,0.008746482927335614,0.00843388294119001
125.89254117941664,1.6202426681905326,-0.6052612753173143,0.009053487514854219,0.008697800065062336
100.0,1.7298143412804923,-0.6053003170926646,0.009191492123752318,0.008784555273409225
79.43282347242804,1.8290186917520326,-0.5968769913627667,0.009232099673696197,0.008771479650731696
63.09573444801929,1.9177430939832436,-0.5878111593200036,0.009258367610916717,0.00874694030619225
50.11872336272725,2.0000411478347653,-0.5839517083017013,0.009334312938957229,0.008777808057924961
39.81071705534969,2.0822320985092135,-0.5874569762677273,0.009487971507022925,0.008891286581504423
31.622776601683796,2.1706533335441245,-0.5962687927572781,0.00970585596172083,0.009069432987523536
25.118864315095767,2.2694176115126177,-0.6046311615879814,0.00993601808235556,0.009253528861684129
19.95262314968879,2.378517983423351,-0.6047886530888541,0.010103187659614037,0.009361386184996838
15.848931924611108,2.4931321227833094,-0.5898135554693018,0.010138195497669332,0.009319181126632768
12.589254117941664,2.6050065567457903,-0.5565346910800388,0.010010585949488622,0.009095958883953918
10.0,2.705588822739318,-0.5068339879969747,0.00974299467934804,0.008718662860471946
7.943282347242805,2.789092222568658,-0.44645986562839524,0.009396429032998262,0.0082564440021894
6.30957344480193,2.8537463511208,-0.38236648281676994,0.009039024988079519,0.0077870812631565785
5.011872336272715,2.901073639504899,-0.3203871416784444,0.008720693600041846,0.007368861965474808
3.981071705534969,2.934296845754794,-0.26421850662521057,0.008464953221292416,0.007030416140782592
3.1622776601683795,2.9569560593134074,-0.21553182072179738,0.008274183574413113,0.006775476697664597
2.5118864315095766,2.972139046974816,-0.17457712556380228,0.008139238717416307,0.006593335265551562
1.9952623149688788,2.982228815132478,-0.14080450022169927,0.008047308878866455,0.0064680987411754815
1.584893192461111,2.9889349879087552,-0.11331416016645902,0.007986330519930475,0.00638430697832707
1.2589254117941662,2.993429509610915,-0.09112483399006659,0.007946662985193937,0.006329317767330453
1.0,2.996492836619262,-0.07331049889257105,0.007921258433102516,0.006293735492821293
0.7943282347242805,2.998635239484096,-0.05905742944598287,0.007905230038651538,0.00627097006213302
0.6309573444801929,3.000186600623441,-0.04767843182479479,0.007895297619258843,0.006256563407868775
0.5011872336272715,3.00135888214937,-0.0386065374647806,0.007889303126246491,0.006247567430535731
0.3981071705534969,3.0022879463588854,-0.03138043049773664,0.007885844089549303,0.006242059820796383
0.31622776601683794,3.0030608841967688,-0.02562788448614284,0.00788401579847962,0.00623879781070828
0.2511886431509577,3.003733658204987,-0.021050078692386186,0.00788323730799851,0.006236982093232684
0.1995262314968879,3.004342461073249,-0.017407822831947032,0.007883136843990063,0.006236100297996738
0.1584893192461111,3.004910998002181,-0.014509853078907588,0.007883477286598021,0.006235824795380545
0.12589254117941662,3.0054550617320723,-0.01220308108437177,0.007884107867025586,0.006235946383257012
0.1,3.0059853058570525,-0.010364633926657547,0.007884932794838801,0.006236331317158817
0.07943282347242805,3.0065088827507633,-0.008895466134529179,0.007885890885458898,0.006236893538961839
0.0630957344480193,3.0070303818594617,-0.00771523539859155,0.00788694230552504,0.006237576785688929
0.05011872336272714,3.0075522359470206,-0.006758160839180475,0.007888059652111272,0.006238342914866427
0.039810717055349686,3.0080746155282494,-0.005969776597403059,0.007889221399163015,0.006239163921081494
0.031622776601683784,3.0085949169706696,-0.005304683991436606,0.007890406690538903,0.006240016166298611
0.02511886431509577,3.0091071551369035,-0.004725409365025535,0.007891591392350971,0.006240876274878427
0.019952623149688792,3.009601711328667,-0.004202301953647173,0.007892745928094741,0.006241718770522013
0.01584893192461111,3.0100659049744882,-0.003714158064744007,0.00789383565392521,0.00624251583426705
0.01258925411794166,3.0104857377816483,-0.00324895118010654,0.007894824374590697,0.006243239524786915
0.01,3.0108487557395316,-0.0028037437687676867,0.00789568071287261,0.006243866177807534
