freq,Zreal,Zimag,sigma_re,sigma_im
1000000.0,0.9844021378697912,0.030757166831145308,0.025238360454667687,0.02492286388090781
794328.2347242822,0.9848121463132905,0.023616735011591103,0.025217869976908402,0.024901674340713293
630957.344480193,0.9852932440368186,0.017906595166368916,0.0252056573416609,0.024888886390578013
501187.2336272725,0.9858323070349159,0.013351702933960558,0.025198671845425832,0.024881394561478018
398107.17055349686,0.986412548351329,0.009729909656690718,0.025194948306822285,0.024877203514294066
316227.7660168379,0.9870168473605869,0.006859480412253571,0.02519322728120977,0.024875038620932995
251188.6431509582,0.9876303715349257,0.00459062794381636,0.025192709659186994,0.024874093853977805
199526.2314968879,0.9882420331396662,0.002799759252647027,0.025192895965143014,0.02487386681505106
158489.3192461114,0.9888448334385956,0.0013853213320704477,0.025193480106486435,0.024874050067058708
125892.5411794166,0.9894354139588037,0.00026447818352921555,0.025194279072591825,0.02487445965288242
100000.0,0.9900132061279405,-0.0006298160617959339,0.02519518683329335,0.024874988511911
79432.82347242821,0.9905795207983983,-0.0013515180678510233,0.025196144632006996,0.02487557660138915
63095.7344480193,0.9911367907447979,-0.0019439682621237271,0.025197122276005415,0.024876192117492115
50118.72336272724,0.9916880318852425,-0.0024420768591658037,0.025198106597952536,0.024876819939365094
39810.71705534969,0.9922364918693445,-0.0028741897244735,0.025199094437859147,0.02487745466519488
31622.776601683792,0.9927854153720481,-0.003263642705055963,0.02520008841431744,0.02487809652332374
25118.864315095827,0.9933378361474123,-0.0036300538881222978,0.02520109436729381,0.024878749040225027
19952.623149688792,0.9938963114905389,-0.00399046788808638,0.025202119741491266,0.024879417726520643
15848.93192461114,0.9944625925458966,-0.0043605279190283164,0.025203172570685467,0.024880109395477492
12589.254117941662,0.9950373548183734,-0.004755818441705729,0.025204261175027665,0.024880832118265275
10000.0,0.9956201683268312,-0.005193368087223292,0.02520539495668503,0.024881596078082376
7943.282347242814,0.9962097735468982,-0.005693164476887179,0.025206586563402588,0.024882415544748827
6309.57344480193,0.9968045489665828,-0.006279565026856605,0.025207855373839065,0.02488331199885027
5011.8723362727205,0.9974029964160377,-0.00698265230795459,0.02520923223218034,0.024884318480426933
3981.0717055349687,0.9980041579278681,-0.00783970298253431,0.025210765845955076,0.02488548569792915
3162.2776601683795,0.9986079823685146,-0.008896948946669791,0.02521253200547717,0.02488689111432247
2511.8864315095802,0.9992157089721326,-0.010211784174812232,0.025214647552095244,0.024888652963941917
1995.2623149688789,0.9998303624253966,-0.011855566406687551,0.025217291996728775,0.02489095211316616
1584.8931924611124,1.0004574930440424,-0.013917171151774951,0.025220741302512718,0.024894066248592413
1258.9254117941662,1.0011063516476868,-0.01650746692883291,0.025225420978278946,0.02489842345858812
1000.0,1.0017917713295943,-0.01976489237410386,0.025231989561334288,0.0249046862286002
794.3282347242813,1.002537148922198,-0.023862323852124164,0.025241469248619107,0.024913882689133027
630.957344480193,1.0033791061871102,-0.02901542882965759,0.025255448794772976,0.024927610475701942
501.187233627272,1.004374730288423,-0.035492677719998235,0.02527639602124809,0.02494835082112967
398.10717055349687,1.0056128070923338,-0.0436270427334801,0.02530813388507367,0.02497994696527265
316.227766016838,1.0072312075413887,-0.053829014343477206,0.025356553251456426,0.025028319847303984
251.18864315095797,1.0094436190506435,-0.06659970145639532,0.02543064961273887,0.02510250745475225
199.5262314968879,1.0125801234298362,-0.0825410164244404,0.02554395795781714,0.025216099531259827
158.48931924611125,1.017147400300303,-0.10235654579807256,0.02571636783873737,0.025389043651066538
125.89254117941664,1.0239145899447766,-0.12683065384545741,0.02597602802244859,0.02564951955672581
100.0,1.0340276797526942,-0.15676357440483132,0.026360446125820638,0.026034965750088797
79.43282347242804,1.0491435811427534,-0.19282674781273446,0.026914842977755416,0.02659029068778391
63.09573444801929,1.0715460704459945,-0.23529035205996884,0.027684561956070754,0.02736005169444223
50.11872336272725,1.1041502791991193,-0.2835813939766979,0.028697951824142958,0.028371044951671
39.81071705534969,1.1502270405570596,-0.3356941110880477,0.029938903478331617,0.029604585559558312
31.622776601683796,1.2126420916580076,-0.3876411166089268,0.03131646062545002,0.03096607856425289
25.118864315095767,1.2925472948826808,-0.43338255812103815,0.03265117731084251,0.032271790259033775
19.95262314968879,1.3879080749168355,-0.4657811548723168,0.03370370587057994,0.0332784912230098
15.848931924611108,1.4928118088976243,-0.47871601476393255,0.03425373724475662,0.03376397627969013
12.589254117941664,1.5984942185217386,-0.4695072049522286,0.03419578618154115,0.03362428337175054
10.0,1.6959571846827428,-0.4401182194677581,0.03358882726559249,0.03292365248750605
7.943282347242805,1.7787198152184462,-0.3962529197609748,0.032622606837746454,0.031859623158052304
6.30957344480193,1.8441301582737197,-0.345026433505519,0.03152766878756629,0.030670899911929044
5.011872336272715,1.8928987981389804,-0.2927334470117215,0.03049141944976585,0.029551395973935187
3.981071705534969,1.9276889785460551,-0.24370456256118775,0.02962050846214083,0.02861148873699642
3.1622776601683795,1.9517514666841131,-0.20024333992980528,0.028947462716366043,0.02788457910875036
2.5118864315095766,1.9680760715713812,-0.1631262500032755,0.028457723726546095,0.027354827551046748
1.9952623149688788,1.97904953755262,-0.13219845047259182,0.02811632131333761,0.026984830587547182
1.584893192461111,1.9864249937144123,-0.10684114363554018,0.027885360803373043,0.026733989294106548
1.2589254117941662,1.9914251709902409,-0.08626878314359723,0.027732311234773873,0.02656734531644543
1.0,1.9948751625992949,-0.06969160872047145,0.027632322566463422,0.02645812042989375
0.7943282347242805,1.9973199480739825,-0.056391858050367075,0.027567659602971698,0.026387162076372515
0.6309573444801929,1.9991145701694162,-0.04575127150856771,0.027526182642826857,0.0263413400295384
0.5011872336272715,2.0004885494497087,-0.03725369490447706,0.027499795840723443,0.02631188836201368
0.3981071705534969,2.001590037406249,-0.03047623916742545,0.027483187176019042,0.02629305051393012
0.31622776601683794,2.002515176888883,-0.025076134594459534,0.02747290617017509,0.02628108390838485
0.2511886431509577,2.0033270488417863,-0.02077696643273334,0.02746672544408659,0.026273569671590665
0.1995262314968879,2.004067545486093,-0.017356127171738216,0.027463212468126556,0.026268949517580978
0.1584893192461111,2.0047646897362172,-0.014634210753433866,0.027461447380442313,0.02626622081859096
0.12589254117941662,2.0054371811424536,-0.012466370997983645,0.02746083894685395,0.02626473785697977
0.1,2.0060972635453265,-0.010735334145555362,0.027461005258862085,0.026264083027578423
0.07943282347242805,2.006752494339896,-0.009345732982049645,0.027461696621654146,0.026263983734856403
0.0630957344480193,2.0074067178632107,-0.008219550487835823,0.027462745676108003,0.02626425896356859
0.05011872336272714,2.008060450222586,-0.007292576642501041,0.027464035020796775,0.026264784961413018
0.039810717055349686,2.0087108783320353,-0.006511843794583134,0.027465476174561097,0.026265473161823847
0.031622776601683784,2.0093517118480477,-0.0058340160121428605,0.027466996166804838,0.026266256065328574
0.02511886431509577,2.0099731782104566,-0.00522466084096181,0.02746852968832108,0.026267078601195773
0.019952623149688792,2.010562482667639,-0.004658220105494987,0.027470015723055304,0.02626789360752747
0.01584893192461111,2.011105024833939,-0.004118327565492993,0.027471398014565454,0.026268660581934066
0.01258925411794166,2.011586515827195,-0.0035979140499924206,0.027472628686441358,0.026269346890963222
0.01,2.011995781803237,-0.0030983806569466143,0.02747367374914044,0.026269930286761743
