freq,Zreal,Zimag,sigma_re,sigma_im
1000000.0,1.0063660569995267,0.0018014571969811632,0.03673099034761977,0.0022896213599247627
794328.2347242822,1.0063896639977963,0.0014060254798422148,0.03673175693960379,0.002288967483643732
630957.344480193,1.0064101144690776,0.001097903305794661,0.03673240011559332,0.002288596319567056
501187.2336272725,1.006423030923669,0.0008588327472633288,0.036732763446775035,0.0022883835139764245
398107.17055349686,1.00642434601495,0.0006717152688020448,0.03673270510486838,0.002288249997379067
316227.7660168379,1.0064112402000975,0.0005201200273435985,0.036732130716148746,0.0022881485612502566
251188.6431509582,1.0063827996042398,0.00038831264782976556,0.036731015416277754,0.002288054213292829
199526.2314968879,1.0063402795334717,0.00026154611082523634,0.036729411298793944,0.002287957390675412
158489.3192461114,1.0062869976871105,0.00012636983125842216,0.03672744174194491,0.0022878596052821427
125892.5411794166,1.0062279854115248,-2.9216170643304567e-05,0.03672528790762545,0.002287771090329768
100000.0,1.0061695734139664,-0.00021581417053451968,0.03672317417539199,0.0022877099668155696
79432.82347242821,1.0061190381887668,-0.0004428202870839822,0.03672135698918964,0.0022877025760394366
63095.7344480193,1.0060843201441736,-0.0007186514891314784,0.036720116974465304,0.0022877847845913513
50118.72336272724,1.006073738305878,-0.0010509676767615768,0.03671975082665968,0.0022880040129202306
39810.71705534969,1.0060956228364728,-0.0014469460915971244,0.03672055938739361,0.0022884217457651837
31622.776601683792,1.0061578568284595,-0.0019137306114726227,0.036722831193281694,0.0022891168143637213
25118.864315095827,1.0062674155604345,-0.0024591717727176768,0.036726824788600086,0.0022901904980304156
19952.623149688792,1.0064300550284435,-0.0030929020201358242,0.03673275585975993,0.0022917749362343313
15848.93192461114,1.0066503030996028,-0.003827701424832714,0.03674079550832737,0.0022940468481905973
12589.254117941662,1.006931862030014,-0.004681044744992299,0.03675108426291111,0.0022972496790096856
10000.0,1.007278472274632,-0.00567668996095183,0.03676376401214336,0.0023017285135873713
7943.282347242814,1.007695225567096,-0.006846159692947829,0.036779027431871024,0.002307982597517618
6309.57344480193,1.0081902478205338,-0.008229986382501464,0.0367971816658464,0.0023167402123442384
5011.8723362727205,1.0087766245146972,-0.00987865320622123,0.036818721077237174,0.0023290606065319752
3981.0717055349687,1.0094744494514243,-0.011853237125217471,0.03684440437327758,0.002346467321676973
3162.2776601683795,1.0103129294729751,-0.01422579253387053,0.036875333841057595,0.002371114554081892
2511.8864315095802,1.0113325116611684,-0.017079490035476527,0.03691303619200491,0.002405980374254627
1995.2623149688789,1.0125869736628383,-0.02050849743608584,0.036959543636959136,0.0024550660634744346
1584.8931924611124,1.0141453596672176,-0.024617626413524663,0.03701747132667167,0.0025235617634876296
1258.9254117941662,1.0160936294208374,-0.029521887429161134,0.03709008641378564,0.002617924162187901
1000.0,1.0185359897009476,-0.0353462605449401,0.03718136778701657,0.002745817586831904
794.3282347242813,1.0215961562760223,-0.04222611582436832,0.03729606600746739,0.002915907870995598
630.957344480193,1.025419259118891,-0.050308648484171915,0.0374397901330805,0.0031375589528720017
501.187233627272,1.0301756190074083,-0.05975523934498351,0.03761916677484687,0.003420525310846677
398.10717055349687,1.0360678664793086,-0.07074374789369337,0.03784212477958445,0.003774715024787072
316.227766016838,1.0433425105302114,-0.08346864435943233,0.03811834352220536,0.00421001510904574
251.18864315095797,1.05230608870764,-0.09813605093981881,0.038459862757829776,0.004736068349852832
199.5262314968879,1.0633448132964225,-0.11495040987017084,0.03888180019691675,0.005361819952658918
158.48931924611125,1.0769454132978726,-0.1340893396036015,0.03940306854527466,0.006094625463942955
125.89254117941664,1.0937132074649725,-0.15566292410720378,0.04004691165543685,0.006938710579113954
100.0,1.1143802961205742,-0.17965373204101662,0.04084095648610675,0.00789280180181638
79.43282347242804,1.1397917342171573,-0.20583636400782146,0.041816302858153444,0.00894687455286095
63.09573444801929,1.1708527717587554,-0.23368299612766277,0.04300504895336588,0.010078298611379218
50.11872336272725,1.2084207563465312,-0.26227461953926456,0.04443577810823275,0.011248215041281638
39.81071705534969,1.2531361118002686,-0.29025206951571436,0.046127064567138,0.012399570909263758
31.622776601683796,1.3052088925244294,-0.31584839874067533,0.0480799307783943,0.013458535234094767
25.118864315095767,1.364205824503892,-0.33703631700341624,0.05027111226239954,0.01434068479127761
19.95262314968879,1.4289065018739537,-0.351796234386325,0.05264952502147895,0.014962180714363083
15.848931924611108,1.4973010246015173,-0.358465125490739,0.055138047874556034,0.01525428747580652
12.589254117941664,1.5667720878281264,-0.35608031828922854,0.057641427141595564,0.015177680740214625
10.0,1.6344449502952612,-0.3446113926199733,0.06005910331728832,0.014732118945220665
7.943282347242805,1.6976230389185187,-0.3249968989024854,0.062299896886184106,0.013958018277516328
6.30957344480193,1.7541889568046543,-0.2989657440991625,0.06429468642469259,0.012929082605162439
5.011872336272715,1.8028610171565758,-0.26869731584585954,0.06600386606716663,0.011738216613234858
3.981071705534969,1.8432490760031603,-0.23642534855166691,0.06741817311731625,0.010481062402044052
3.1622776601683795,1.875724310058115,-0.20409700808619527,0.0685536358636148,0.00924177837378211
2.5118864315095766,1.9011733476587467,-0.17316222978214102,0.06944301368530648,0.00808419785849045
1.9952623149688788,1.9207259208051422,-0.14451104509615373,0.07012659494122106,0.007049167085834045
1.584893192461111,1.9355265634810168,-0.11852761562886326,0.07064458390035652,0.006156854020464308
1.2589254117941662,1.9465831475362523,-0.09520763724297862,0.0710320931477612,0.005411901104369041
1.0,1.95469048559192,-0.07429068637211664,0.07131664787945635,0.0048094498092470074
0.7943282347242805,1.9604085281627137,-0.055378223951114615,0.0715175081029898,0.004340721538621798
0.6309573444801929,1.9640720035148456,-0.038027589968615653,0.07164603423835542,0.003997357312575063
0.5011872336272715,1.9658150653977655,-0.02182505380040697,0.07170654904022268,0.003773750568019378
0.3981071705534969,1.965604121666869,-0.006445824481618298,0.07169747407797973,0.003666312361508317
0.31622776601683794,1.9632807812642528,0.008292720933333782,0.0716128203468816,0.003669080841849111
0.2511886431509577,1.958622319152349,0.02238525517686082,0.07144430452751432,0.003767915531474241
0.1995262314968879,1.9514260522232865,0.035611192710775244,0.07118432993295062,0.00393795257236446
0.1584893192461111,1.9416135802607912,0.047545635112117554,0.07082970503318996,0.004145610160918781
0.12589254117941662,1.9293326678716654,0.057626906847089064,0.07038532621317305,0.004353120033373937
0.1,1.9150190131744385,0.06528097380539288,0.06986648387963836,0.004524493606020076
0.07943282347242805,1.8993824088698554,0.07007353506212038,0.06929849674370862,0.004631995366589566
0.0630957344480193,1.8833082109576158,0.07183819324765986,0.0687132845704815,0.0046612593522344994
0.05011872336272714,1.8677028973822163,0.07073244952445534,0.06814384080906022,0.004613143051682848
0.039810717055349686,1.8533377109133855,0.06720335404601611,0.06761851849739563,0.004501627500442198
0.031622776601683784,1.8407414929676378,0.06188287624608052,0.06715700880915643,0.004348703780405565
0.02511886431509577,1.830167437304976,0.05545718392641879,0.06676898136122791,0.004178235019283068
0.019952623149688792,1.8216263709937413,0.04855421640531402,0.06645518376915648,0.0040108070253025855
0.01584893192461111,1.8149579868709314,0.04167559359395013,0.06620998875913318,0.0038607845592489687
0.01258925411794166,1.809908058854944,0.03517539590829121,0.06602421535932837,0.003735719821865633
0.01,1.8061902038084652,0.0292719703536592,0.06588741672692514,0.003637453023590824
