tau,gamma
1e-07,1.1734798425323406e-05
1.1097524964120721e-07,0.00010081783244970192
1.2315506032928263e-07,0.0005061950360892291
1.3667163564620074e-07,0.00150243726238994
1.5167168884709241e-07,0.002730896401083523
1.6831803533309585e-07,0.0033371713453841153
1.867913599020781e-07,0.0032426143898727456
2.0729217795953698e-07,0.0028889382255222304
2.300430119772917e-07,0.002486057350293264
2.5529080682395163e-07,0.0021421382322292133
2.833096101839324e-07,0.0018608239914512578
3.1440354715915e-07,0.0016471905948353194
3.489101213406774e-07,0.001480071039255853
3.872038781812557e-07,0.0013559231984010625
4.2970047043208437e-07,0.0012633418229898241
4.768611697714474e-07,0.0011990602844699735
5.291978735958437e-07,0.001160270812679649
5.872786613189477e-07,0.0011434987219863134
6.517339604882421e-07,0.0011522278357514635
7.232633896483533e-07,0.0011843190429572023
8.026433522257174e-07,0.001253947082768069
8.907354638610439e-07,0.0013762339844059616
9.884959046625586e-07,0.0016176511490676056
1.096985797892384e-06,0.0020865429206272305
1.217382727739662e-06,0.0029918395107654595
1.3509935211980278e-06,0.004597513540424778
1.499268432786047e-06,0.006854055419398266
1.6638168860761274e-06,0.009201481332203791
1.8464249428955464e-06,0.011230328701389182
2.049074689815846e-06,0.012055759763957234
2.2739657523579273e-06,0.01115210915919969
2.523539170434766e-06,0.009273015455728974
2.800503894183631e-06,0.006835302387878823
3.107866187782014e-06,0.004530842508136628
3.4489622604057595e-06,0.0029742633870634126
3.827494478516315e-06,0.0020949687074899824
4.247571552536894e-06,0.0017071612256326326
4.713753134116729e-06,0.0016372092447229719
5.2310993080562585e-06,0.0017374141440351717
5.805225516094895e-06,0.0019711463452287982
6.44236350872137e-06,0.002399113957544225
7.149428986597577e-06,0.003152873605920404
7.934096665797492e-06,0.0044600104955367864
8.804883581643465e-06,0.0065919713890518475
9.771241535346501e-06,0.009575409467507939
1.0843659686896109e-05,0.013255752136023187
1.2033778407775906e-05,0.017348582781939702
1.3354515629298974e-05,0.02080517963262007
1.48202070579886e-05,0.02333227817498491
1.6446761779946626e-05,0.02443600696928739
1.8251834943190462e-05,0.0238433652410085
2.0255019392306664e-05,0.02212711713067427
2.2478058335487252e-05,0.01929888758732091
2.4945081352303165e-05,0.016219180069818352
2.7682866303920665e-05,0.013335408730800944
3.072112998861759e-05,0.011044223559770744
3.409285069746814e-05,0.00976171787141337
3.783462617131933e-05,0.009552027131686389
4.1987070844439056e-05,0.010480209817105953
4.659525668664687e-05,0.012565730465003384
5.170920242896755e-05,0.015593753974744334
5.7384416483024044e-05,0.019491804402503372
6.368249944718586e-05,0.023863848075649903
7.067181273927492e-05,0.02826147006506623
7.842822061337681e-05,0.03255543434643954
8.703591361485166e-05,0.03601013888015852
9.658832241158708e-05,0.038859707820552335
0.00010718913192051276,0.040604373589505145
0.00011895340673703195,0.04150891688336157
0.0001320088400831418,0.041666879719454514
0.00014649713983072864,0.04115602748320201
0.0001625755666443795,0.040556961560162925
0.00018041864093920718,0.03985328595280064
0.00020022003718155845,0.03973208479172732
0.0002221946860939524,0.04022434756500465
0.0002465811075822604,0.041845954730889964
0.0002736439997074672,0.044577611962803895
0.00030367711180354605,0.048740453031346206
0.00033700643292719284,0.054006723140618385
0.0003739937302478798,0.06052752800263352
0.0004150404757850477,0.06768667009236685
0.00046059220411451084,0.075262284420433
0.0005111433483440171,0.0828667145512638
0.0005672426068491978,0.08964834781733244
0.0006294988990221888,0.09596908268425061
0.0006985879746785249,0.10057483361691931
0.0007752597488629464,0.10446195114564254
0.000860346441668451,0.10674740077938873
0.0009547716114208065,0.10842037342732339
0.001059560179277617,0.10956330745599993
0.0011758495540521582,0.11070669662581631
0.0013049019780144017,0.11274180819039979
0.001448118227674533,0.11576526308626717
0.0016070528182616384,0.12092597953383392
0.0017834308769319094,0.1279860609585202
0.0019791668678535573,0.1380783396111061
0.002196385372416547,0.15048761253246687
0.002437444150122222,0.16639053675601606
0.002704959730463137,0.18443149742031303
0.0030018358135755923,0.2056978231828634
0.003331294787934677,0.22853016683534197
0.0036969127071950323,0.253756896070605
0.00410265810582719,0.2815877661927648
0.004552935074866948,0.3120382455971387
0.00505263106533568,0.3481808683919952
0.005607169938205458,0.3989313514628451
0.006222570836730231,0.5022696137390616
0.006905513520162331,0.6805836720508217
0.007663410868007463,0.8375429850806964
0.008504489341802686,0.7900000623467541
0.009437878277775391,0.5684883176931256
0.010473708979594508,0.3566408761718478
0.011623224686798541,0.215645656495286
0.01289890261253308,0.12737174282640665
0.014314589375234785,0.06923431134110498
0.015885651294280528,0.03214842210358595
0.01762914118095948,0.013052760034319075
0.01956398343517065,0.0046902196227206734
0.021711179456945052,0.0015523787522024382
0.02409403560239527,0.0006831677939957636
0.026738416158399492,0.0004944149758637662
0.029673024081888724,0.0004365599521372625
0.032929712550971546,0.00040182976442161583
0.036543830709572546,0.00037223193896363817
0.040554607358408275,0.0003486409501269273
0.04500557675700498,0.00032748020023482726
0.0499450511585514,0.00031059291715718434
0.05542664520663107,0.00029446937352866416
0.06150985788580504,0.0002806556757670533
0.06826071834272393,0.00026704639102132226
0.0757525025877192,0.0002543125842504444
0.08406652885618333,0.00024218242565065296
0.09329304026284696,0.00023012577984947482
0.10353218432956637,0.0002193410155813627
0.11489510001873086,0.00020840968583791752
0.1275051240713013,0.00019919329967810993
0.1414991297434576,0.00019000924193557432
0.15702901247293774,0.0001826024602225408
0.17426333860096507,0.00017556324723863882
0.19338917504552322,0.00017004251232277388
0.21461411978584058,0.00016520630858465324
0.23816855519761607,0.00016142268919099988
0.2643081486974108,0.00015854219562891122
0.29331662783900486,0.00015613863416353755
0.32550885998350565,0.0001547208903688349
0.36123426997094304,0.00015318661418295144
0.40088063288984643,0.0001525514957625076
0.4448782831127585,0.00015131976577056774
0.4937047852839004,0.0001507061267576151
0.5478901179593945,0.00014929801833581493
0.6080224261649427,0.0001480639144653486
0.67475440531107,0.00014621572886639437
0.748810385759003,0.00014407121949581945
0.8309941949353403,0.00014177320286560757
0.9221978823334341,0.0001388764523326089
1.0234114021054528,0.00013632905476328375
1.135733358343105,0.00013316776988376983
1.2603829296797273,0.00013070280288107207
1.3987131026472386,0.00012787618237187007
1.552225357427048,0.00012587805531067952
1.7225859653987874,0.00012392966612659583
1.9116440753857036,0.00012277799383807102
2.121451784910632,0.00012213282551875365
2.35428641432242,0.00012217552650917608
2.612675225563332,0.00012315319144057024
2.8994228538828812,0.0001247084910206861
3.2176417502507353,0.0001275665858001129
3.5707859649004625,0.00013094856759549752
3.9626886387014784,0.00013592830694111063
4.397603609302721,0.0001414908006055313
4.880251583654434,0.0001488620920410602
5.415871378079476,0.00015705536266897186
6.010276782070388,0.0001671728260240541
6.669919663030129,0.0001785977942938706
7.401959996915652,0.00019196872684056258
8.214343584919439,0.00020740303789822058
9.115888299750837,0.00022474112177309484
10.11637979766207,0.0002451121666671178
11.226677735108158,0.00026727311021084474
12.458833642950081,0.0002925499244428815
13.826221737646593,0.0003122661755695073
15.343684089300131,0.0003045379168298308
17.02769172225898,0.00023127534001899795
18.896523396912116,0.00011619321197361145
20.970464013232306,3.5506117738824693e-05
23.27202478960412,6.399223984669031e-06
25.826187606826746,6.735338412495578e-07
28.66067616948256,4.127427067439948e-08
31.80625692794119,1.4712513323403557e-09
35.297073027306574,3.049726265518815e-11
39.17101490809261,3.6759102046005767e-13
43.47013158125035,2.57624977673685e-15
48.241087041653735,1.0498488143092689e-17
53.535666774107185,2.4875984540398147e-20
59.411339849650396,3.427269167699164e-23
65.93188271333541,2.7455570880069114e-26
73.16807143427206,1.2788718970991923e-29
81.19844993184009,3.4636811211406476e-33
90.11018251665037,5.454601799940604e-37
100.0,4.994620439842619e-41
