tau,gamma
1e-07,2.2520727112799257e-32
1.1097524964120721e-07,3.6556785233654865e-30
1.2315506032928263e-07,4.881796440605639e-28
1.3667163564620074e-07,5.363125014684042e-26
1.5167168884709241e-07,4.84711738439912e-24
1.6831803533309585e-07,3.6039413462892547e-22
1.867913599020781e-07,2.2044603663529425e-20
2.0729217795953698e-07,1.1093283673603004e-18
2.300430119772917e-07,4.5925675874794214e-17
2.5529080682395163e-07,1.5642110110977454e-15
2.833096101839324e-07,4.383185285359059e-14
3.1440354715915e-07,1.010543439130902e-12
3.489101213406774e-07,1.9169702975413992e-11
3.872038781812557e-07,2.992325684825273e-10
4.2970047043208437e-07,3.844091261934389e-09
4.768611697714474e-07,4.064991277661481e-08
5.291978735958437e-07,3.539524161508811e-07
5.872786613189477e-07,2.53899845871493e-06
6.517339604882421e-07,1.5015521803523975e-05
7.232633896483533e-07,7.329673223061418e-05
8.026433522257174e-07,0.000295852094174634
8.907354638610439e-07,0.0009901756951793018
9.884959046625586e-07,0.0027596091420318877
1.096985797892384e-06,0.006446412296548506
1.217382727739662e-06,0.012747728837632916
1.3509935211980278e-06,0.021656593784520037
1.499268432786047e-06,0.03227465594091504
1.6638168860761274e-06,0.0433555566868605
1.8464249428955464e-06,0.05412474337022546
2.049074689815846e-06,0.06453841057524576
2.2739657523579273e-06,0.07483849161980831
2.523539170434766e-06,0.08507781045815091
2.800503894183631e-06,0.09511889849097657
3.107866187782014e-06,0.1048789847787483
3.4489622604057595e-06,0.11439808179489647
3.827494478516315e-06,0.12371546573142922
4.247571552536894e-06,0.13279891141880035
4.713753134116729e-06,0.141600445375121
5.2310993080562585e-06,0.150111598173079
5.805225516094895e-06,0.15834315652960354
6.44236350872137e-06,0.16628730429923952
7.149428986597577e-06,0.17392076541537788
7.934096665797492e-06,0.18122808681236668
8.804883581643465e-06,0.18820511100729231
9.771241535346501e-06,0.1948458410350188
1.0843659686896109e-05,0.2011372454339085
1.2033778407775906e-05,0.20706588367440837
1.3354515629298974e-05,0.2126224847556007
1.48202070579886e-05,0.21779905203357464
1.6446761779946626e-05,0.2225854304252945
1.8251834943190462e-05,0.2269702489397666
2.0255019392306664e-05,0.23094320067920962
2.2478058335487252e-05,0.2344950276326768
2.4945081352303165e-05,0.23761622613625688
2.7682866303920665e-05,0.24029680936878986
3.072112998861759e-05,0.24252716565312293
3.409285069746814e-05,0.24429851758706989
3.783462617131933e-05,0.2456027430091566
4.1987070844439056e-05,0.2464322884672373
4.659525668664687e-05,0.24678058975600656
5.170920242896755e-05,0.24664260231710222
5.7384416483024044e-05,0.24601513556843865
6.368249944718586e-05,0.2448971727578667
7.067181273927492e-05,0.24329034469838043
7.842822061337681e-05,0.2411995652215302
8.703591361485166e-05,0.23863359908816362
9.658832241158708e-05,0.2356056049899544
0.00010718913192051276,0.2321336416143106
0.00011895340673703195,0.2282411850215862
0.0001320088400831418,0.22395755302448836
0.00014649713983072864,0.21931820325081364
0.0001625755666443795,0.21436492274839142
0.00018041864093920718,0.2091458847754511
0.00020022003718155845,0.20371561140673747
0.0002221946860939524,0.19813476564719587
0.0002465811075822604,0.1924698402636927
0.0002736439997074672,0.18679269013192046
0.00030367711180354605,0.1811799553504557
0.00033700643292719284,0.17571233466319475
0.0003739937302478798,0.1704737215363364
0.0004150404757850477,0.16555020687264857
0.00046059220411451084,0.16102892029393695
0.0005111433483440171,0.1569967312916201
0.0005672426068491978,0.15353877217222028
0.0006294988990221888,0.15073683632351245
0.0006985879746785249,0.14866763166521127
0.0007752597488629464,0.14740093470185986
0.000860346441668451,0.14699767300554348
0.0009547716114208065,0.147508026357991
0.001059560179277617,0.1489696158824896
0.0011758495540521582,0.15140580519570052
0.0013049019780144017,0.15482414130749367
0.001448118227674533,0.15921503929678738
0.0016070528182616384,0.16455085033865088
0.0017834308769319094,0.1707853787356864
0.0019791668678535573,0.17785379371776538
0.002196385372416547,0.18567287895215073
0.002437444150122222,0.19414154127384653
0.002704959730463137,0.20314126683363945
0.0030018358135755923,0.21253624884702646
0.003331294787934677,0.22217370989544327
0.0036969127071950323,0.2318866725763687
0.00410265810582719,0.241501909967421
0.004552935074866948,0.2508537582357479
0.00505263106533568,0.25979963807798695
0.005607169938205458,0.2682272516038699
0.006222570836730231,0.2760396389910001
0.006905513520162331,0.28310875816873127
0.007663410868007463,0.2892066116782934
0.008504489341802686,0.2939520472063209
0.009437878277775391,0.2968314454232162
0.010473708979594508,0.29732401218743615
0.011623224686798541,0.2950848953120153
0.01289890261253308,0.2900822376823232
0.014314589375234785,0.28260829317307895
0.015885651294280528,0.2731609027804769
0.01762914118095948,0.26226438557211507
0.01956398343517065,0.2503306229408203
0.021711179456945052,0.2376216429408508
0.02409403560239527,0.22429622049448691
0.026738416158399492,0.21048014762082387
0.029673024081888724,0.19631484927456463
0.032929712550971546,0.1819727923269623
0.036543830709572546,0.1676493416525331
0.040554607358408275,0.1535458477963482
0.04500557675700498,0.13985420533444823
0.0499450511585514,0.12674691685968778
0.05542664520663107,0.11437202805539132
0.06150985788580504,0.10285048532786034
0.06826071834272393,0.09227392881342633
0.0757525025877192,0.08270257938342994
0.08406652885618333,0.07416397552107622
0.09329304026284696,0.0666530936304932
0.10353218432956637,0.060134027830905296
0.11489510001873086,0.05454323975368139
0.1275051240713013,0.04979439778071044
0.1414991297434576,0.04578447120093207
0.15702901247293774,0.042400382428075624
0.17426333860096507,0.03952570545800695
0.19338917504552322,0.0370472260242979
0.21461411978584058,0.03486098164010281
0.23816855519761607,0.03287690170645086
0.2643081486974108,0.031021492448378346
0.29331662783900486,0.02923922037557828
0.32550885998350565,0.027493396040204135
0.36123426997094304,0.02576581502305552
0.40088063288984643,0.024053800506654486
0.4448782831127585,0.022365637106883104
0.4937047852839004,0.020717523942979158
0.5478901179593945,0.019132497904367832
0.6080224261649427,0.017637537294189723
0.67475440531107,0.01625708284764794
0.748810385759003,0.015008120117407039
0.8309941949353403,0.01390199132008962
0.9221978823334341,0.012948463729885494
1.0234114021054528,0.012153199713612877
1.135733358343105,0.011510103833795778
1.2603829296797273,0.011000179805635895
1.3987131026472386,0.010601050823127303
1.552225357427048,0.010296351359852575
1.7225859653987874,0.010074704039402934
1.9116440753857036,0.009922508352470395
2.121451784910632,0.00982125418347045
2.35428641432242,0.009751555096698067
2.612675225563332,0.009697470822108515
2.8994228538828812,0.00964649361926918
3.2176417502507353,0.009586952489661849
3.5707859649004625,0.009507013873627181
3.9626886387014784,0.009396800675306165
4.397603609302721,0.00925069184296147
4.880251583654434,0.00906551219522739
5.415871378079476,0.008835700495754653
6.010276782070388,0.008552976169942736
6.669919663030129,0.00821320930259572
7.401959996915652,0.00781997784528757
8.214343584919439,0.0073754800572731136
9.115888299750837,0.006871048695945202
10.11637979766207,0.006297212024080039
11.226677735108158,0.00566308107596527
12.458833642950081,0.004989864307321
13.826221737646593,0.00427785163098508
15.343684089300131,0.0034997585202537736
17.02769172225898,0.0026505682514690113
18.896523396912116,0.0017986085306518269
20.970464013232306,0.0010638079141311186
23.27202478960412,0.0005375415092726943
25.826187606826746,0.00022894603617697114
28.66067616948256,8.147740714180267e-05
31.80625692794119,2.409356039528951e-05
35.297073027306574,5.898987776429443e-06
39.17101490809261,1.1930994223448107e-06
43.47013158125035,1.9905013402090216e-07
48.241087041653735,2.7366879174127313e-08
53.535666774107185,3.0988487769533377e-09
59.411339849650396,2.8887938634263577e-10
65.93188271333541,2.2164750086362544e-11
73.16807143427206,1.3994819587219405e-12
81.19844993184009,7.270818075045012e-14
90.11018251665037,3.1079961439990033e-15
100.0,1.0930479663628802e-16
