tau,gamma
1e-07,2.2846096846548802e-32
1.1097524964120721e-07,3.708494172573489e-30
1.2315506032928263e-07,4.952326477172742e-28
1.3667163564620074e-07,5.440609023528091e-26
1.5167168884709241e-07,4.9171462781829256e-24
1.6831803533309585e-07,3.656009331954674e-22
1.867913599020781e-07,2.2363092585937137e-20
2.0729217795953698e-07,1.1253553060401884e-18
2.300430119772917e-07,4.6589179928627325e-17
2.5529080682395163e-07,1.586809511346798e-15
2.833096101839324e-07,4.4465092858348903e-14
3.1440354715915e-07,1.0251424901155058e-12
3.489101213406774e-07,1.9446633839043584e-11
3.872038781812557e-07,3.035551561458631e-10
4.2970047043208437e-07,3.8996172485860156e-09
4.768611697714474e-07,4.1237013271425436e-08
5.291978735958437e-07,3.590635964791259e-07
5.872786613189477e-07,2.575652447911153e-06
6.517339604882421e-07,1.5232201880379724e-05
7.232633896483533e-07,7.43537620086951e-05
8.026433522257174e-07,0.00030011451352493685
8.907354638610439e-07,0.0010044204303906472
9.884959046625586e-07,0.002799221086359918
1.096985797892384e-06,0.006538640102520666
1.217382727739662e-06,0.012929229862776807
1.3509935211980278e-06,0.021962828654472726
1.499268432786047e-06,0.03272677849579566
1.6638168860761274e-06,0.043955587469587214
1.8464249428955464e-06,0.05486280640119482
2.049074689815846e-06,0.06540332502152245
2.2739657523579273e-06,0.07582129901951253
2.523539170434766e-06,0.08616839056180425
2.800503894183631e-06,0.09630323746978967
3.107866187782014e-06,0.1061405099405887
3.4489622604057595e-06,0.11571973080598927
3.827494478516315e-06,0.12507944132136814
4.247571552536894e-06,0.13418539505020805
4.713753134116729e-06,0.1429875314406035
5.2310993080562585e-06,0.1514762127920913
5.805225516094895e-06,0.15966146392659014
6.44236350872137e-06,0.167534378549215
7.149428986597577e-06,0.1750704234513665
7.934096665797492e-06,0.1822532464230087
8.804883581643465e-06,0.18907819829066777
9.771241535346501e-06,0.19553890398565155
1.0843659686896109e-05,0.20162198918767568
1.2033778407775906e-05,0.20731389750087686
1.3354515629298974e-05,0.21260559270146112
1.48202070579886e-05,0.2174896038249674
1.6446761779946626e-05,0.22195653249232386
1.8251834943190462e-05,0.22599605029313025
2.0255019392306664e-05,0.2295992637285942
2.2478058335487252e-05,0.23275872031093786
2.4945081352303165e-05,0.23546710392726145
2.7682866303920665e-05,0.23771701873013262
3.072112998861759e-05,0.23950189590437837
3.409285069746814e-05,0.2408164868514644
3.783462617131933e-05,0.2416566950469267
4.1987070844439056e-05,0.2420194997036531
4.659525668664687e-05,0.24190338852473023
5.170920242896755e-05,0.2413088865026293
5.7384416483024044e-05,0.2402388607565681
6.368249944718586e-05,0.23869878784023524
7.067181273927492e-05,0.23669715089063972
7.842822061337681e-05,0.2342459642935794
8.703591361485166e-05,0.23136119568756375
9.658832241158708e-05,0.2280631412331929
0.00010718913192051276,0.22437675680292637
0.00011895340673703195,0.22033198098941173
0.0001320088400831418,0.21596394527436225
0.00014649713983072864,0.21131306518208726
0.0001625755666443795,0.20642506221880233
0.00018041864093920718,0.2013508641906253
0.00020022003718155845,0.19614636758851667
0.0002221946860939524,0.1908720186722485
0.0002465811075822604,0.18559237894046896
0.0002736439997074672,0.18037562448977731
0.00030367711180354605,0.17529286702132924
0.00033700643292719284,0.17041721731078088
0.0003739937302478798,0.1658228536052905
0.0004150404757850477,0.16158428205255237
0.00046059220411451084,0.1577754497788892
0.0005111433483440171,0.1544683333890116
0.0005672426068491978,0.1517313394782423
0.0006294988990221888,0.14962835487066195
0.0006985879746785249,0.14821814911486816
0.0007752597488629464,0.14755279732997292
0.000860346441668451,0.14767504011583285
0.0009547716114208065,0.14861677048021557
0.001059560179277617,0.15039965302709646
0.0011758495540521582,0.1530349165770813
0.0013049019780144017,0.15651966842468623
0.001448118227674533,0.16083344639603267
0.0016070528182616384,0.1659406754661895
0.0017834308769319094,0.17179553888538068
0.0019791668678535573,0.1783391353852532
0.002196385372416547,0.18549032793285194
0.002437444150122222,0.19314644666921058
0.002704959730463137,0.20119855696197664
0.0030018358135755923,0.20954044070220992
0.003331294787934677,0.21805894736714884
0.0036969127071950323,0.2266343936124861
0.00410265810582719,0.23517866899874845
0.004552935074866948,0.2436810842654745
0.00505263106533568,0.2522380710472915
0.005607169938205458,0.2611503725650262
0.006222570836730231,0.2711054386367426
0.006905513520162331,0.28303112130391617
0.007663410868007463,0.29704393396322254
0.008504489341802686,0.3109586313153157
0.009437878277775391,0.32027020697554615
0.010473708979594508,0.3207782005300449
0.011623224686798541,0.31185742943496764
0.01289890261253308,0.29692719680748614
0.014314589375234785,0.28062793895402083
0.015885651294280528,0.2657948306335888
0.01762914118095948,0.25282224732333625
0.01956398343517065,0.24089603807913662
0.021711179456945052,0.22919791077309312
0.02409403560239527,0.21727269650938447
0.026738416158399492,0.2049398899666446
0.029673024081888724,0.19219591262043126
0.032929712550971546,0.17916375419503833
0.036543830709572546,0.16602641956669595
0.040554607358408275,0.1529675121112909
0.04500557675700498,0.14015747443989315
0.0499450511585514,0.1277623380982416
0.05542664520663107,0.11593754810085125
0.06150985788580504,0.10481068006137736
0.06826071834272393,0.09447586257851874
0.0757525025877192,0.08500063966077824
0.08406652885618333,0.07642930580433811
0.09329304026284696,0.06877806605659045
0.10353218432956637,0.06203175148802154
0.11489510001873086,0.05614790502141525
0.1275051240713013,0.051063621157648974
0.1414991297434576,0.04670003450291089
0.15702901247293774,0.0429657203906677
0.17426333860096507,0.03976214939900403
0.19338917504552322,0.03699074064173852
0.21461411978584058,0.03455883677532843
0.23816855519761607,0.032383454466424814
0.2643081486974108,0.030393700358838496
0.29331662783900486,0.02853290552302151
0.32550885998350565,0.026760335450378626
0.36123426997094304,0.02505129571753462
0.40088063288984643,0.02339485809575729
0.4448782831127585,0.021790420091755913
0.4937047852839004,0.020245491468961135
0.5478901179593945,0.01877473918327288
0.6080224261649427,0.01739722169764531
0.67475440531107,0.016130672090301668
0.748810385759003,0.014987226365922156
0.8309941949353403,0.013974754605668159
0.9221978823334341,0.013099949905046896
1.0234114021054528,0.012365914930219424
1.135733358343105,0.011765774947417922
1.2603829296797273,0.011282156716600315
1.3987131026472386,0.010895593343249488
1.552225357427048,0.010592147253430821
1.7225859653987874,0.010361648490561511
1.9116440753857036,0.010191117818943989
2.121451784910632,0.010063154329538531
2.35428641432242,0.009960449959640285
2.612675225563332,0.009869676157915244
2.8994228538828812,0.009780631555298895
3.2176417502507353,0.009683213150006365
3.5707859649004625,0.009566657489287034
3.9626886387014784,0.009422114501864321
4.397603609302721,0.00924506062285559
4.880251583654434,0.009033183966562632
5.415871378079476,0.008781213335689382
6.010276782070388,0.00848065977623507
6.669919663030129,0.008127203341136776
7.401959996915652,0.00772464466090067
8.214343584919439,0.007275538733551957
9.115888299750837,0.0067710485726352795
10.11637979766207,0.006200845072560129
11.226677735108158,0.005573106159358372
12.458833642950081,0.004908678418292595
13.826221737646593,0.004207968106285656
15.343684089300131,0.0034435367419064027
17.02769172225898,0.0026092752547765144
18.896523396912116,0.0017715489303566998
20.970464013232306,0.0010483061231487652
23.27202478960412,0.0005299077400357839
25.826187606826746,0.00022575667843765208
28.66067616948256,8.035779357428631e-05
31.80625692794119,2.3765583668735827e-05
35.297073027306574,5.819195359086001e-06
39.17101490809261,1.1770290803733166e-06
43.47013158125035,1.9637651424458137e-07
48.241087041653735,2.6999962396304132e-08
53.535666774107185,3.0573511786021866e-09
59.411339849650396,2.8501393578757674e-10
65.93188271333541,2.1868317727195307e-11
73.16807143427206,1.3807714148294353e-12
81.19844993184009,7.17363089729129e-14
90.11018251665037,3.0664581569026336e-15
100.0,1.0784408414452169e-16
