tau,gamma
1e-07,0.000765184972201752
1.1097524964120721e-07,0.0017552430607592597
1.2315506032928263e-07,0.0034144270673374193
1.3667163564620074e-07,0.005720381750175066
1.5167168884709241e-07,0.008434824501775573
1.6831803533309585e-07,0.011254036511582665
1.867913599020781e-07,0.01400607391342707
2.0729217795953698e-07,0.016694421557628146
2.300430119772917e-07,0.019378982888703232
2.5529080682395163e-07,0.022068489580175855
2.833096101839324e-07,0.02473051753737156
3.1440354715915e-07,0.027349941233925774
3.489101213406774e-07,0.02993922860554606
3.872038781812557e-07,0.03250772383583437
4.2970047043208437e-07,0.035048185343694825
4.768611697714474e-07,0.03755162418816304
5.291978735958437e-07,0.04001874120868823
5.872786613189477e-07,0.04245379988220459
6.517339604882421e-07,0.0448563979413029
7.232633896483533e-07,0.04722320529732283
8.026433522257174e-07,0.049553261045346644
8.907354638610439e-07,0.051848160658213654
9.884959046625586e-07,0.054108944511403835
1.096985797892384e-06,0.05633525944393559
1.217382727739662e-06,0.058527021098508505
1.3509935211980278e-06,0.06068528658777651
1.499268432786047e-06,0.06281146948075415
1.6638168860761274e-06,0.06490662777031264
1.8464249428955464e-06,0.06697176720694771
2.049074689815846e-06,0.06900832639271594
2.2739657523579273e-06,0.07101810314696742
2.523539170434766e-06,0.07300294358799114
2.800503894183631e-06,0.07496470243552436
3.107866187782014e-06,0.07690541666077379
3.4489622604057595e-06,0.07882735164911123
3.827494478516315e-06,0.08073290674391825
4.247571552536894e-06,0.08262454502097831
4.713753134116729e-06,0.08450482812331875
5.2310993080562585e-06,0.08637644476861846
5.805225516094895e-06,0.0882421847260295
6.44236350872137e-06,0.09010489689400693
7.149428986597577e-06,0.09196747480291528
7.934096665797492e-06,0.09383286292629009
8.804883581643465e-06,0.09570403902933752
9.771241535346501e-06,0.09758399450653557
1.0843659686896109e-05,0.09947570880825687
1.2033778407775906e-05,0.10138214521948313
1.3354515629298974e-05,0.10330623507490352
1.48202070579886e-05,0.10525086633638299
1.6446761779946626e-05,0.10721886725706635
1.8251834943190462e-05,0.10921299714192766
2.0255019392306664e-05,0.1112359414512316
2.2478058335487252e-05,0.11329030138716933
2.4945081352303165e-05,0.1153785931604573
2.7682866303920665e-05,0.11750323761563986
3.072112998861759e-05,0.11966656547670437
3.409285069746814e-05,0.12187080886968057
3.783462617131933e-05,0.12411810660437153
4.1987070844439056e-05,0.1264104979836038
4.659525668664687e-05,0.12874992570271573
5.170920242896755e-05,0.13113823365547267
5.7384416483024044e-05,0.13357716443580972
6.368249944718586e-05,0.1360683604302945
7.067181273927492e-05,0.13861335521842116
7.842822061337681e-05,0.14121357631478162
8.703591361485166e-05,0.1438703305442421
9.658832241158708e-05,0.14658480410884947
0.00010718913192051276,0.14935804253879267
0.00011895340673703195,0.1521909423268076
0.0001320088400831418,0.1550842249809374
0.00014649713983072864,0.1580384140945743
0.0001625755666443795,0.1610538032970408
0.00018041864093920718,0.1641304153499848
0.00020022003718155845,0.16726796204066188
0.0002221946860939524,0.17046578403433402
0.0002465811075822604,0.17372280246482244
0.0002736439997074672,0.17703744527642606
0.00030367711180354605,0.18040758873381357
0.00033700643292719284,0.18383047296777952
0.0003739937302478798,0.18730263273664843
0.0004150404757850477,0.1908198152077036
0.00046059220411451084,0.19437690309581132
0.0005111433483440171,0.19796783219826167
0.0005672426068491978,0.20158550180905815
0.0006294988990221888,0.2052217065049273
0.0006985879746785249,0.20886705607283998
0.0007752597488629464,0.21251091744911518
0.000860346441668451,0.21614133641152813
0.0009547716114208065,0.21974502504324064
0.001059560179277617,0.22330739142247497
0.0011758495540521582,0.2268126389107707
0.0013049019780144017,0.23024387194219118
0.001448118227674533,0.2335832085429354
0.0016070528182616384,0.23681183003872233
0.0017834308769319094,0.23990971421596236
0.0019791668678535573,0.24285477272359884
0.002196385372416547,0.24562128666695004
0.002437444150122222,0.24817816097544057
0.002704959730463137,0.25048783733038754
0.0030018358135755923,0.2525071047769109
0.003331294787934677,0.254191064935875
0.0036969127071950323,0.2555012854924293
0.00410265810582719,0.25641783389066175
0.004552935074866948,0.25695267061093485
0.00505263106533568,0.2571596654684552
0.005607169938205458,0.25713408303219054
0.006222570836730231,0.25698910384289586
0.006905513520162331,0.25679223137760443
0.007663410868007463,0.25646343444730624
0.008504489341802686,0.2556971319917747
0.009437878277775391,0.254020750020493
0.010473708979594508,0.2510285168923778
0.011623224686798541,0.2466378615731447
0.01289890261253308,0.2411392319122017
0.014314589375234785,0.23499753815830332
0.015885651294280528,0.22859495762441404
0.01762914118095948,0.22210489437467082
0.01956398343517065,0.2155198901711675
0.021711179456945052,0.20874641490479878
0.02409403560239527,0.2016880633667697
0.026738416158399492,0.19428882640422915
0.029673024081888724,0.1865418198123291
0.032929712550971546,0.1784787544347154
0.036543830709572546,0.17015340790278105
0.040554607358408275,0.16162739761808964
0.04500557675700498,0.15296146141440425
0.0499450511585514,0.14421196916091417
0.05542664520663107,0.13543072554524566
0.06150985788580504,0.12666617075097938
0.06826071834272393,0.11796461130676142
0.0757525025877192,0.10937087841558046
0.08406652885618333,0.10092833104829443
0.09329304026284696,0.09267843557065829
0.10353218432956637,0.0846602689428277
0.11489510001873086,0.07691009327678636
0.1275051240713013,0.06946104696490485
0.1414991297434576,0.06234286614017223
0.15702901247293774,0.055581645357682494
0.17426333860096507,0.04919963556201043
0.19338917504552322,0.04321510825795547
0.21461411978584058,0.03764228281566409
0.23816855519761607,0.03249127772231984
0.2643081486974108,0.027768086832358808
0.29331662783900486,0.02347459315191432
0.32550885998350565,0.019608684541789875
0.36123426997094304,0.016164447942145492
0.40088063288984643,0.013132391189248553
0.4448782831127585,0.01049965127598683
0.4937047852839004,0.008250233609908078
0.5478901179593945,0.006365381104650715
0.6080224261649427,0.004824093113798076
0.67475440531107,0.0036036422326304204
0.748810385759003,0.0026798123307177424
0.8309941949353403,0.0020269255814217607
0.9221978823334341,0.001618308163483486
1.0234114021054528,0.0014276957288081736
1.135733358343105,0.0014308260803993552
1.2603829296797273,0.001605742018921429
1.3987131026472386,0.001931705820970743
1.552225357427048,0.002388357352091287
1.7225859653987874,0.0029559565473636002
1.9116440753857036,0.003615337675944208
2.121451784910632,0.004346650685314629
2.35428641432242,0.0051288365196476
2.612675225563332,0.005941558759365641
2.8994228538828812,0.006766770253571864
3.2176417502507353,0.0075860474720377885
3.5707859649004625,0.008376836738380536
3.9626886387014784,0.009115091694727982
4.397603609302721,0.009782365144691203
4.880251583654434,0.010364858278043922
5.415871378079476,0.01084243858197631
6.010276782070388,0.011186157361220923
6.669919663030129,0.011374717330960831
7.401959996915652,0.011405850666342377
8.214343584919439,0.011277121320171108
9.115888299750837,0.01096196422655177
10.11637979766207,0.010429396811871402
11.226677735108158,0.009689208874190027
12.458833642950081,0.008784015750021239
13.826221737646593,0.007720461416096227
15.343684089300131,0.006449787841014285
17.02769172225898,0.004965873078518328
18.896523396912116,0.003410818809064404
20.970464013232306,0.0020345917527826982
23.27202478960412,0.0010340336646587592
25.826187606826746,0.00044210836412611677
28.66067616948256,0.00015773805201306883
31.80625692794119,4.672226143636451e-05
35.297073027306574,1.1451781577393579e-05
39.17101490809261,2.317823175292795e-06
43.47013158125035,3.868714675503822e-07
48.241087041653735,5.320591889281876e-08
53.535666774107185,6.025871357397941e-09
59.411339849650396,5.618121569623334e-10
65.93188271333541,4.3109523492994905e-11
73.16807143427206,2.7220803895717476e-12
81.19844993184009,1.414269023372687e-13
90.11018251665037,6.045594799132383e-15
100.0,2.126200219552971e-16
