tau,gamma
1e-07,2.959580613024689e-33
1.1097524964120721e-07,4.804141688547675e-31
1.2315506032928263e-07,6.415456216738524e-29
1.3667163564620074e-07,7.048000162289828e-27
1.5167168884709241e-07,6.369886370987844e-25
1.6831803533309585e-07,4.736157248244175e-23
1.867913599020781e-07,2.8970172462543028e-21
2.0729217795953698e-07,1.457838782163616e-19
2.300430119772917e-07,6.0353971477397194e-18
2.5529080682395163e-07,2.0556399357360124e-16
2.833096101839324e-07,5.760281517526469e-15
3.1440354715915e-07,1.328043221618542e-13
3.489101213406774e-07,2.519287621337834e-12
3.872038781812557e-07,3.9325943363975224e-11
4.2970047043208437e-07,5.052149162255169e-10
4.768611697714474e-07,5.342700560792774e-09
5.291978735958437e-07,4.6523770364445666e-08
5.872786613189477e-07,3.3376184921683035e-07
6.517339604882421e-07,1.9741607310150264e-06
7.232633896483533e-07,9.638966152721384e-06
8.026433522257174e-07,3.892052444159664e-05
8.907354638610439e-07,0.0001303335413481467
9.884959046625586e-07,0.0003635401279898323
1.096985797892384e-06,0.000850274082588894
1.217382727739662e-06,0.0016844395105801392
1.3509935211980278e-06,0.002868945742862592
1.499268432786047e-06,0.004290539045268788
1.6638168860761274e-06,0.005790055750823443
1.8464249428955464e-06,0.007269997634632875
2.049074689815846e-06,0.008730537222133143
2.2739657523579273e-06,0.010213364451364467
2.523539170434766e-06,0.011738655147152409
2.800503894183631e-06,0.013301350626992236
3.107866187782014e-06,0.014901061175379024
3.4489622604057595e-06,0.016552608995623268
3.827494478516315e-06,0.018272422673193067
4.247571552536894e-06,0.020068985198656117
4.713753134116729e-06,0.02194777591834972
5.2310993080562585e-06,0.023917611562434184
5.805225516094895e-06,0.02598929385293768
6.44236350872137e-06,0.028171622561318384
7.149428986597577e-06,0.03047103171466127
7.934096665797492e-06,0.03289353095913238
8.804883581643465e-06,0.035445206477955495
9.771241535346501e-06,0.038131128374107724
1.0843659686896109e-05,0.04095466633339107
1.2033778407775906e-05,0.04391777058104841
1.3354515629298974e-05,0.04702125380041753
1.48202070579886e-05,0.0502645708300506
1.6446761779946626e-05,0.053645479964544565
1.8251834943190462e-05,0.05715996625982515
2.0255019392306664e-05,0.06080229793266921
2.2478058335487252e-05,0.06456500433956538
2.4945081352303165e-05,0.06843879108810107
2.7682866303920665e-05,0.07241251055083087
3.072112998861759e-05,0.07647322266541715
3.409285069746814e-05,0.08060627913087506
3.783462617131933e-05,0.08479542954941899
4.1987070844439056e-05,0.08902295133276251
4.659525668664687e-05,0.09326984412015545
5.170920242896755e-05,0.0975160617366631
5.7384416483024044e-05,0.10174078520172519
6.368249944718586e-05,0.10592272625024281
7.067181273927492e-05,0.11004046054571956
7.842822061337681e-05,0.11407279838957518
8.703591361485166e-05,0.11799916593180354
9.658832241158708e-05,0.12180002098398073
0.00010718913192051276,0.12545726823699563
0.00011895340673703195,0.12895471027719702
0.0001320088400831418,0.1322785037449023
0.00014649713983072864,0.1354176480684895
0.0001625755666443795,0.1383644890903645
0.00018041864093920718,0.14111523476766413
0.00020022003718155845,0.14367047754726128
0.0002221946860939524,0.14603567566888917
0.0002465811075822604,0.14822159021305376
0.0002736439997074672,0.15024459493692463
0.00030367711180354605,0.1521268580170995
0.00033700643292719284,0.1538963140582706
0.0003739937302478798,0.1555864285889096
0.0004150404757850477,0.15723571382367688
0.00046059220411451084,0.15888700689165192
0.0005111433483440171,0.1605865301370103
0.0005672426068491978,0.1623827418822123
0.0006294988990221888,0.1643250350926295
0.0006985879746785249,0.16646229374858132
0.0007752597488629464,0.1688413948433922
0.000860346441668451,0.17150566710721907
0.0009547716114208065,0.17449337526567743
0.001059560179277617,0.1778362449928672
0.0011758495540521582,0.18155811353177842
0.0013049019780144017,0.18567374678487464
0.001448118227674533,0.19018784644002143
0.0016070528182616384,0.19509424719729757
0.0017834308769319094,0.2003753549263399
0.0019791668678535573,0.20600192543176385
0.002196385372416547,0.2119331328610768
0.002437444150122222,0.2181167310273538
0.002704959730463137,0.22448892944501506
0.0030018358135755923,0.2309737478804331
0.003331294787934677,0.23748175703012536
0.0036969127071950323,0.2439089318011814
0.00410265810582719,0.25013778302077067
0.004552935074866948,0.2560446540715424
0.00505263106533568,0.2615161711811577
0.005607169938205458,0.2664716941067678
0.006222570836730231,0.2708786436493125
0.006905513520162331,0.2747401154925744
0.007663410868007463,0.27803942314720115
0.008504489341802686,0.28065279294175194
0.009437878277775391,0.2822810832260756
0.010473708979594508,0.28246693111710697
0.011623224686798541,0.2807285154284112
0.01289890261253308,0.2767659319445597
0.014314589375234785,0.2706194665659847
0.015885651294280528,0.26265499756320154
0.01762914118095948,0.25337475825467004
0.01956398343517065,0.2431997071379663
0.021711179456945052,0.2323700152290469
0.02409403560239527,0.22098031971161877
0.026738416158399492,0.20907047564956882
0.029673024081888724,0.19669816007252552
0.032929712550971546,0.18396797985314609
0.036543830709572546,0.1710262111940234
0.040554607358408275,0.1580406876094386
0.04500557675700498,0.1451809910348748
0.0499450511585514,0.13260612604684074
0.05542664520663107,0.12045976012787059
0.06150985788580504,0.10886928459545399
0.06826071834272393,0.09794496764589637
0.0757525025877192,0.08777806187216884
0.08406652885618333,0.07843865413472922
0.09329304026284696,0.06997398163088672
0.10353218432956637,0.06240743076170643
0.11489510001873086,0.0557382864991207
0.1275051240713013,0.04994257197743737
0.1414991297434576,0.04497516429554592
0.15702901247293774,0.0407730316866648
0.17426333860096507,0.03725926676420132
0.19338917504552322,0.03434758849621919
0.21461411978584058,0.03194704426992939
0.23816855519761607,0.029966585959277665
0.2643081486974108,0.028319180806451304
0.29331662783900486,0.026925198722767364
0.32550885998350565,0.025714927498977448
0.36123426997094304,0.02463019257368862
0.40088063288984643,0.023625114196904044
0.4448782831127585,0.022666036362960728
0.4937047852839004,0.021730694690100624
0.5478901179593945,0.02080677393498904
0.6080224261649427,0.01989013333522154
0.67475440531107,0.018982906278427088
0.748810385759003,0.01809152253781386
0.8309941949353403,0.017224698666762236
0.9221978823334341,0.016391645749638355
1.0234114021054528,0.015600790199742464
1.135733358343105,0.01485894373558414
1.2603829296797273,0.014170613085720079
1.3987131026472386,0.013537443212602253
1.552225357427048,0.012958202457257798
1.7225859653987874,0.012429405742464452
1.9116440753857036,0.011945977863670337
2.121451784910632,0.011501483511794943
2.35428641432242,0.011088373817969725
2.612675225563332,0.010698828411108117
2.8994228538828812,0.010325628750207216
3.2176417502507353,0.009962048399545027
3.5707859649004625,0.0096012573573626
3.9626886387014784,0.009236847276126895
4.397603609302721,0.008864190028524477
4.880251583654434,0.008480111684513668
5.415871378079476,0.008080558994740533
6.010276782070388,0.007660185221077674
6.669919663030129,0.007215820623835666
7.401959996915652,0.006748371786519929
8.214343584919439,0.006257999204536842
9.115888299750837,0.005739239570308373
10.11637979766207,0.005186804860361344
11.226677735108158,0.004605750130225228
12.458833642950081,0.004006426435133539
13.826221737646593,0.0033858092005423653
15.343684089300131,0.002727363764988036
17.02769172225898,0.0020350054694030454
18.896523396912116,0.001363443834030791
20.970464013232306,0.0007984942491632167
23.27202478960412,0.00040058465795584714
25.826187606826746,0.00016975837581120916
28.66067616948256,6.020729564569411e-05
31.80625692794119,1.776309029615738e-05
35.297073027306574,4.342469307667123e-06
39.17101490809261,8.7741098692558e-07
43.47013158125035,1.462869399395181e-07
48.241087041653735,2.0104041834141995e-08
53.535666774107185,2.2758202171587043e-09
59.411339849650396,2.1211709328037334e-10
65.93188271333541,1.627312382512054e-11
73.16807143427206,1.02740630355075e-12
81.19844993184009,5.337484730841919e-14
90.11018251665037,2.2814966459970653e-15
100.0,8.023604005854912e-17
