tau,gamma
1e-07,2.0128953488201589e-07
1.1097524964120721e-07,1.7275402138521677e-06
1.2315506032928263e-07,8.643926266794497e-06
1.3667163564620074e-07,2.537091135918272e-05
1.5167168884709241e-07,4.4555963646210675e-05
1.6831803533309585e-07,4.972251872884496e-05
1.867913599020781e-07,4.1119120830755514e-05
2.0729217795953698e-07,3.268666403245539e-05
2.300430119772917e-07,3.0226371940618094e-05
2.5529080682395163e-07,3.147157789079061e-05
2.833096101839324e-07,3.3869035185135164e-05
3.1440354715915e-07,3.6241080596165464e-05
3.489101213406774e-07,3.7313274515309295e-05
3.872038781812557e-07,3.744344522277809e-05
4.2970047043208437e-07,3.674084786448541e-05
4.768611697714474e-07,3.7605847158439214e-05
5.291978735958437e-07,5.034265011556598e-05
5.872786613189477e-07,0.00011544206561800717
6.517339604882421e-07,0.00033297453756318167
7.232633896483533e-07,0.000821741067767621
8.026433522257174e-07,0.001696569415677838
8.907354638610439e-07,0.0030869654557348705
9.884959046625586e-07,0.004851781883435202
1.096985797892384e-06,0.006788231013296141
1.217382727739662e-06,0.00877513269095602
1.3509935211980278e-06,0.01041798266494853
1.499268432786047e-06,0.01167233362819377
1.6638168860761274e-06,0.01228809447686226
1.8464249428955464e-06,0.01219084315821947
2.049074689815846e-06,0.011493854574679151
2.2739657523579273e-06,0.01011012399358483
2.523539170434766e-06,0.008390532051799364
2.800503894183631e-06,0.00639793246640727
3.107866187782014e-06,0.004424923404532805
3.4489622604057595e-06,0.0027238235035639243
3.827494478516315e-06,0.0013802334080450544
4.247571552536894e-06,0.0005995051644219318
4.713753134116729e-06,0.00037431496692799833
5.2310993080562585e-06,0.0007109494410555727
5.805225516094895e-06,0.001680780854310533
6.44236350872137e-06,0.0033285872959267085
7.149428986597577e-06,0.005786479511633128
7.934096665797492e-06,0.008844315268578283
8.804883581643465e-06,0.012308105386720938
9.771241535346501e-06,0.016034502924822062
1.0843659686896109e-05,0.01951963189304303
1.2033778407775906e-05,0.022773842649618736
1.3354515629298974e-05,0.02527712665629293
1.48202070579886e-05,0.027009335676906353
1.6446761779946626e-05,0.027821929701627845
1.8251834943190462e-05,0.027516043170161836
2.0255019392306664e-05,0.02641181152520567
2.2478058335487252e-05,0.02425763275979661
2.4945081352303165e-05,0.021568164323313804
2.7682866303920665e-05,0.018312401039628175
3.072112998861759e-05,0.01485743591375631
3.409285069746814e-05,0.011490740868277772
3.783462617131933e-05,0.00834200484777911
4.1987070844439056e-05,0.005818793776385678
4.659525668664687e-05,0.003970723228675113
5.170920242896755e-05,0.003035763741269782
5.7384416483024044e-05,0.003131877415807122
6.368249944718586e-05,0.0042522316430262256
7.067181273927492e-05,0.006527196409736203
7.842822061337681e-05,0.009849095370866444
8.703591361485166e-05,0.014142715335191482
9.658832241158708e-05,0.019407282171169563
0.00010718913192051276,0.0252373112737655
0.00011895340673703195,0.03176329587405185
0.0001320088400831418,0.03841516375963945
0.00014649713983072864,0.045215574036965016
0.0001625755666443795,0.05180365670182546
0.00018041864093920718,0.05779731777535239
0.00020022003718155845,0.06333190274783959
0.0002221946860939524,0.06758632872366224
0.0002465811075822604,0.07112451560896586
0.0002736439997074672,0.07305293759329151
0.00030367711180354605,0.07396450489080718
0.00033700643292719284,0.07344555596115088
0.0003739937302478798,0.07172291767615306
0.0004150404757850477,0.06917399021744589
0.00046059220411451084,0.06563276561887857
0.0005111433483440171,0.06207957289655538
0.0005672426068491978,0.058319758001186425
0.0006294988990221888,0.05543279236311378
0.0006985879746785249,0.053561587015570164
0.0007752597488629464,0.0535323856531291
0.000860346441668451,0.05576447024534986
0.0009547716114208065,0.06088855121020192
0.001059560179277617,0.06913141431744466
0.0011758495540521582,0.08112014160047577
0.0013049019780144017,0.09657373656151157
0.001448118227674533,0.11588424105111016
0.0016070528182616384,0.13864769062483037
0.0017834308769319094,0.164242345569307
0.0019791668678535573,0.1929889445428781
0.002196385372416547,0.22261845736266395
0.002437444150122222,0.25451904769383255
0.002704959730463137,0.2851998836060757
0.0030018358135755923,0.31624097682393976
0.003331294787934677,0.34452600524974647
0.0036969127071950323,0.369945152165246
0.00410265810582719,0.3913317699350009
0.004552935074866948,0.4061483876749919
0.00505263106533568,0.4180655155390795
0.005607169938205458,0.42293740198647617
0.006222570836730231,0.4223170479249234
0.006905513520162331,0.40873686824897815
0.007663410868007463,0.38761455906967013
0.008504489341802686,0.36148130150867774
0.009437878277775391,0.3317261438812243
0.010473708979594508,0.29940980339406575
0.011623224686798541,0.26257065593188317
0.01289890261253308,0.22571180683311678
0.014314589375234785,0.18727305274994266
0.015885651294280528,0.15093055503344072
0.01762914118095948,0.11635206645373748
0.01956398343517065,0.0851261593826664
0.021711179456945052,0.058561124159656766
0.02409403560239527,0.036446666480187934
0.026738416158399492,0.020240543017341763
0.029673024081888724,0.009113087504169871
0.032929712550971546,0.0029102899982067472
0.036543830709572546,0.0006462279057269171
0.040554607358408275,0.0001157228378844732
0.04500557675700498,2.7535910597154286e-05
0.0499450511585514,1.9831158011440623e-05
0.05542664520663107,2.4073216709845593e-05
0.06150985788580504,2.944416456031785e-05
0.06826071834272393,3.380585571082394e-05
0.0757525025877192,3.741564986702004e-05
0.08406652885618333,4.017217014742386e-05
0.09329304026284696,4.2253594372692594e-05
0.10353218432956637,4.3631406954002726e-05
0.11489510001873086,4.410183249307849e-05
0.1275051240713013,4.4192319739721075e-05
0.1414991297434576,4.366763982772929e-05
0.15702901247293774,4.319952030739653e-05
0.17426333860096507,4.2654874426244766e-05
0.19338917504552322,4.250612219596792e-05
0.21461411978584058,4.269125073679046e-05
0.23816855519761607,4.3442695781877645e-05
0.2643081486974108,4.473706129757406e-05
0.29331662783900486,4.6578303945176835e-05
0.32550885998350565,4.8955375418199764e-05
0.36123426997094304,5.15542357064864e-05
0.40088063288984643,5.437566570580474e-05
0.4448782831127585,5.664330738657955e-05
0.4937047852839004,5.8501981650491784e-05
0.5478901179593945,5.890848905898085e-05
0.6080224261649427,5.8221173843824756e-05
0.67475440531107,5.5997476847076866e-05
0.748810385759003,5.2495036470072714e-05
0.8309941949353403,4.8322557495474294e-05
0.9221978823334341,4.347996251081802e-05
1.0234114021054528,3.885853534507923e-05
1.135733358343105,3.4348697820161935e-05
1.2603829296797273,3.04673953138307e-05
1.3987131026472386,2.707937973203044e-05
1.552225357427048,2.4342961943593e-05
1.7225859653987874,2.2148625216541186e-05
1.9116440753857036,2.0484817796687823e-05
2.121451784910632,1.9304009324595045e-05
2.35428641432242,1.8539078762842707e-05
2.612675225563332,1.8213232290794825e-05
2.8994228538828812,1.824954791292085e-05
3.2176417502507353,1.874265741672224e-05
3.5707859649004625,1.9623894557104697e-05
3.9626886387014784,2.1068638136112893e-05
4.397603609302721,2.303269892044743e-05
4.880251583654434,2.579902008520645e-05
5.415871378079476,2.9381333455810685e-05
6.010276782070388,3.421919478465931e-05
6.669919663030129,4.046065502581711e-05
7.401959996915652,4.880542703580228e-05
8.214343584919439,5.977240228977139e-05
9.115888299750837,7.463293418401458e-05
10.11637979766207,9.494329583559684e-05
11.226677735108158,0.00012221914336119796
12.458833642950081,0.00015591987067051702
13.826221737646593,0.00018928298895267207
15.343684089300131,0.00020218618298215566
17.02769172225898,0.00016045940025206863
18.896523396912116,8.191782077357544e-05
20.970464013232306,2.5161485716964237e-05
23.27202478960412,4.5420069494478776e-06
25.826187606826746,4.782868145152794e-07
28.66067616948256,2.9313749790415422e-08
31.80625692794119,1.044955601534703e-09
35.297073027306574,2.1660952964315238e-11
39.17101490809261,2.6108584142936935e-13
43.47013158125035,1.829813869527836e-15
48.241087041653735,7.456686201412327e-18
53.535666774107185,1.7668489821601747e-20
59.411339849650396,2.4342623423918984e-23
65.93188271333541,1.9500675224101544e-26
73.16807143427206,9.08335350303045e-30
81.19844993184009,2.460124438172159e-33
90.11018251665037,3.8742016723986936e-37
100.0,3.547493945906634e-41
