tau,gamma
1e-07,3.9841546675670556e-33
1.1097524964120721e-07,6.467282665526328e-31
1.2315506032928263e-07,8.636417148937455e-29
1.3667163564620074e-07,9.487941920752012e-27
1.5167168884709241e-07,8.575073849867411e-25
1.6831803533309585e-07,6.375766552784758e-23
1.867913599020781e-07,3.899936574444555e-21
2.0729217795953698e-07,1.9625296370311532e-19
2.300430119772917e-07,8.124805625874465e-18
2.5529080682395163e-07,2.767290753280334e-16
2.833096101839324e-07,7.754475129513748e-15
3.1440354715915e-07,1.7878141697251877e-13
3.489101213406774e-07,3.391487152563072e-12
3.872038781812557e-07,5.2941354408278495e-11
4.2970047043208437e-07,6.801385773849716e-10
4.768611697714474e-07,7.192672719365663e-09
5.291978735958437e-07,6.26349885542924e-08
5.872786613189477e-07,4.4936390646657156e-07
6.517339604882421e-07,2.658114759224991e-06
7.232633896483533e-07,1.2979773539862065e-05
8.026433522257174e-07,5.241849427006214e-05
8.907354638610439e-07,0.00017557665898468647
9.884959046625586e-07,0.0004899140719466363
1.096985797892384e-06,0.0011464581772505727
1.217382727739662e-06,0.002272943017093033
1.3509935211980278e-06,0.003875416413951364
1.499268432786047e-06,0.005803802953655642
1.6638168860761274e-06,0.00784524988221917
1.8464249428955464e-06,0.009867896086363638
2.049074689815846e-06,0.011869492412619156
2.2739657523579273e-06,0.013903031178814747
2.523539170434766e-06,0.0159929451531874
2.800503894183631e-06,0.01813012949446298
3.107866187782014e-06,0.020311592243595303
3.4489622604057595e-06,0.022554262125005175
3.827494478516315e-06,0.024876844835281527
4.247571552536894e-06,0.027287415294067113
4.713753134116729e-06,0.02979035852561484
5.2310993080562585e-06,0.032394837055630704
5.805225516094895e-06,0.035112752427480895
6.44236350872137e-06,0.037953358833928516
7.149428986597577e-06,0.04092299717387731
7.934096665797492e-06,0.04402788547793833
8.804883581643465e-06,0.047274738487863247
9.771241535346501e-06,0.050669170668014914
1.0843659686896109e-05,0.05421478679214146
1.2033778407775906e-05,0.0579136614000091
1.3354515629298974e-05,0.06176672938468787
1.48202070579886e-05,0.06577338521021416
1.6446761779946626e-05,0.06993092812983992
1.8251834943190462e-05,0.07423441658409344
2.0255019392306664e-05,0.07867668962252644
2.2478058335487252e-05,0.08324821343339811
2.4945081352303165e-05,0.08793681048343478
2.7682866303920665e-05,0.09272748245461161
3.072112998861759e-05,0.09760237288648689
3.409285069746814e-05,0.10254075580390562
3.783462617131933e-05,0.1075190555288292
4.1987070844439056e-05,0.11251093663761823
4.659525668664687e-05,0.11748753738864957
5.170920242896755e-05,0.12241781261375745
5.7384416483024044e-05,0.12726899047392062
6.368249944718586e-05,0.13200714189403778
7.067181273927492e-05,0.1365978680691239
7.842822061337681e-05,0.14100710870454372
8.703591361485166e-05,0.145202017551471
9.658832241158708e-05,0.14915191547459755
0.00010718913192051276,0.1528292495793192
0.00011895340673703195,0.15621056971634453
0.0001320088400831418,0.15927744237861888
0.00014649713983072864,0.16201729435022116
0.0001625755666443795,0.1644241325398984
0.00018041864093920718,0.1664991085382855
0.00020022003718155845,0.16825091698577715
0.0002221946860939524,0.16969597411827825
0.0002465811075822604,0.1708584080956742
0.0002736439997074672,0.17176980514153686
0.00030367711180354605,0.17246876625565438
0.00033700643292719284,0.17300023821283528
0.0003739937302478798,0.1734146691912074
0.0004150404757850477,0.17376698731353074
0.00046059220411451084,0.17411542830967341
0.0005111433483440171,0.1745202453436209
0.0005672426068491978,0.17504230079098074
0.0006294988990221888,0.17574159713329046
0.0006985879746785249,0.17667573477789547
0.0007752597488629464,0.1778983648970217
0.000860346441668451,0.1794576330595311
0.0009547716114208065,0.18139468279806026
0.001059560179277617,0.18374223507642207
0.0011758495540521582,0.18652330709496642
0.0013049019780144017,0.18975010433435474
0.001448118227674533,0.19342313512524142
0.0016070528182616384,0.19753058665896164
0.0017834308769319094,0.2020479841299796
0.0019791668678535573,0.2069381642416001
0.002196385372416547,0.2121515427411349
0.002437444150122222,0.21762669532340465
0.002704959730463137,0.22329118603430154
0.0030018358135755923,0.22906265422813168
0.003331294787934677,0.2348500681296457
0.0036969127071950323,0.24055515195400834
0.00410265810582719,0.24607391027910178
0.004552935074866948,0.2512982508162444
0.00505263106533568,0.25611768902862153
0.005607169938205458,0.2604211220481441
0.006222570836730231,0.2640987321429218
0.006905513520162331,0.26704398355846093
0.007663410868007463,0.26915581892361723
0.008504489341802686,0.27034098487205815
0.009437878277775391,0.2705165608158984
0.010473708979594508,0.2696125744172246
0.011623224686798541,0.2675746535303864
0.01289890261253308,0.2643665542205632
0.014314589375234785,0.259972357697378
0.015885651294280528,0.254398186492554
0.01762914118095948,0.2476731695117226
0.01956398343517065,0.23984962504998275
0.021711179456945052,0.23100231062788343
0.02409403560239527,0.22122688455814998
0.026738416158399492,0.2106376496938492
0.029673024081888724,0.19936479518818542
0.032929712550971546,0.18755132914949013
0.036543830709572546,0.17534980201950692
0.040554607358408275,0.16291896081135657
0.04500557675700498,0.1504202628837688
0.0499450511585514,0.13801430386127364
0.05542664520663107,0.12585706332316132
0.06150985788580504,0.11409603850963469
0.06826071834272393,0.10286632162220191
0.0757525025877192,0.09228677013636116
0.08406652885618333,0.08245650970678005
0.09329304026284696,0.07345197843653743
0.10353218432956637,0.06532482363486157
0.11489510001873086,0.05810083511595028
0.1275051240713013,0.051780108091036975
0.1414991297434576,0.046338473479189464
0.15702901247293774,0.04173012134446881
0.17426333860096507,0.03789123128191562
0.19338917504552322,0.03474429209384713
0.21461411978584058,0.03220277717882757
0.23816855519761607,0.030175819957297255
0.2643081486974108,0.02857258378579256
0.29331662783900486,0.027306082186566914
0.32550885998350565,0.02629626690259948
0.36123426997094304,0.02547229625803334
0.40088063288984643,0.024773954859522482
0.4448782831127585,0.024152245125676913
0.4937047852839004,0.023569216701541666
0.5478901179593945,0.02299713835639958
0.6080224261649427,0.02241719157870072
0.67475440531107,0.02181786554364239
0.748810385759003,0.02119323197269554
0.8309941949353403,0.020541261804709752
0.9221978823334341,0.019862352027487876
1.0234114021054528,0.019158204959498146
1.135733358343105,0.018431093164910255
1.2603829296797273,0.01768345557262094
1.3987131026472386,0.016917743929967474
1.552225357427048,0.016136476243613206
1.7225859653987874,0.015342423778928083
1.9116440753857036,0.014538808666532666
2.121451784910632,0.013729381840958446
2.35428641432242,0.012918339190049533
2.612675225563332,0.012110122939253547
2.8994228538828812,0.011309186424161635
3.2176417502507353,0.010519799185092608
3.5707859649004625,0.00974592414977174
3.9626886387014784,0.008991144090405832
4.397603609302721,0.00825854796675619
4.880251583654434,0.007550547874835846
5.415871378079476,0.006868817709175297
6.010276782070388,0.006214623253670286
6.669919663030129,0.005589273978089102
7.401959996915652,0.004993779927430999
8.214343584919439,0.004427628264506501
9.115888299750837,0.0038886445192501296
10.11637979766207,0.003375402778904753
11.226677735108158,0.002888970663857665
12.458833642950081,0.0024290423541801056
13.826221737646593,0.0019878726498142327
15.343684089300131,0.0015541530022924095
17.02769172225898,0.0011297156287192953
18.896523396912116,0.0007410646408787368
20.970464013232306,0.00042711688110622597
23.27202478960412,0.00021182649532602567
25.826187606826746,8.90545597758626e-05
28.66067616948256,3.141434838977645e-05
31.80625692794119,9.234875580140533e-06
35.297073027306574,2.2522342991141184e-06
39.17101490809261,4.5435924640710856e-07
43.47013158125035,7.567571915816993e-08
48.241087041653735,1.0393067809077392e-08
53.535666774107185,1.1760045115567067e-09
59.411339849650396,1.0957802758762411e-10
65.93188271333541,8.405017151262173e-12
73.16807143427206,5.305884722124615e-13
81.19844993184009,2.756248558961927e-14
90.11018251665037,1.1780930026511501e-15
100.0,4.1430000812095906e-17
