tau,gamma
1e-07,0.00025922174077156005
1.1097524964120721e-07,0.00038220278890261375
1.2315506032928263e-07,0.0005222150891244317
1.3667163564620074e-07,0.0006630273477774008
1.5167168884709241e-07,0.0007849859451475814
1.6831803533309585e-07,0.0008705077378583848
1.867913599020781e-07,0.00090926380736895
2.0729217795953698e-07,0.0009007483381750154
2.300430119772917e-07,0.0008532758259454533
2.5529080682395163e-07,0.0007802689301485286
2.833096101839324e-07,0.0006958153800200891
3.1440354715915e-07,0.000611336066189723
3.489101213406774e-07,0.0005341861069440081
3.872038781812557e-07,0.0004679269331770744
4.2970047043208437e-07,0.00041345586812382854
4.768611697714474e-07,0.00037022723888629333
5.291978735958437e-07,0.00033715304210879505
5.872786613189477e-07,0.0003131133464448671
6.517339604882421e-07,0.00029718799335969444
7.232633896483533e-07,0.0002887546656303845
8.026433522257174e-07,0.00028755993180428364
8.907354638610439e-07,0.0002938212125891989
9.884959046625586e-07,0.00030838472889978475
1.096985797892384e-06,0.00033294888392022907
1.217382727739662e-06,0.00037035640569509787
1.3509935211980278e-06,0.0004249515839705059
1.499268432786047e-06,0.0005029786083178832
1.6638168860761274e-06,0.000612950023614674
1.8464249428955464e-06,0.0007658345938080009
2.049074689815846e-06,0.0009748186879728674
2.2739657523579273e-06,0.0012543409828444515
2.523539170434766e-06,0.001618177163125714
2.800503894183631e-06,0.0020766354210994156
3.107866187782014e-06,0.0026333872830073355
3.4489622604057595e-06,0.0032828980731074396
3.827494478516315e-06,0.0040095047048170455
4.247571552536894e-06,0.0047886760604843506
4.713753134116729e-06,0.0055900203877708434
5.2310993080562585e-06,0.006380754069780902
5.805225516094895e-06,0.0071282768208034775
6.44236350872137e-06,0.007801349498025437
7.149428986597577e-06,0.008370488069318865
7.934096665797492e-06,0.008808600140969059
8.804883581643465e-06,0.00909223826907725
9.771241535346501e-06,0.009202841359139466
1.0843659686896109e-05,0.00912715697364377
1.2033778407775906e-05,0.008857088501490243
1.3354515629298974e-05,0.008390516867462144
1.48202070579886e-05,0.007734639170644131
1.6446761779946626e-05,0.006911468626343836
1.8251834943190462e-05,0.005962606191750931
2.0255019392306664e-05,0.0049494464164830726
2.2478058335487252e-05,0.003946893391529039
2.4945081352303165e-05,0.0030325352751841782
2.7682866303920665e-05,0.0022765634187326637
3.072112998861759e-05,0.0017382816076904062
3.409285069746814e-05,0.001472332777016459
3.783462617131933e-05,0.0015430892177021014
4.1987070844439056e-05,0.002041128244451955
4.659525668664687e-05,0.0030933037194872622
5.170920242896755e-05,0.004859043459584111
5.7384416483024044e-05,0.007510732741785986
6.368249944718586e-05,0.011204178466771582
7.067181273927492e-05,0.016052225483812375
7.842822061337681e-05,0.02211500661459742
8.703591361485166e-05,0.02941114152479479
9.658832241158708e-05,0.037939984372483325
0.00010718913192051276,0.04769683535440191
0.00011895340673703195,0.05866949538509129
0.0001320088400831418,0.07082174325006069
0.00014649713983072864,0.084081716962355
0.0001625755666443795,0.09834816538149364
0.00018041864093920718,0.11350958870706745
0.00020022003718155845,0.12945877492295588
0.0002221946860939524,0.1460910958971759
0.0002465811075822604,0.16329237921208267
0.0002736439997074672,0.18093225757010375
0.00030367711180354605,0.19887142321415785
0.00033700643292719284,0.21697538695173127
0.0003739937302478798,0.23512082036776713
0.0004150404757850477,0.25319002569533433
0.00046059220411451084,0.2710634570512239
0.0005111433483440171,0.28862298833848166
0.0005672426068491978,0.30576589473082016
0.0006294988990221888,0.322415014309229
0.0006985879746785249,0.3385113442833005
0.0007752597488629464,0.353992005737987
0.000860346441668451,0.3687704692629872
0.0009547716114208065,0.38273041685907105
0.001059560179277617,0.39572704214816756
0.0011758495540521582,0.4075846694181276
0.0013049019780144017,0.41809633218712056
0.001448118227674533,0.4270460975800154
0.0016070528182616384,0.4342611680463097
0.0017834308769319094,0.43966744555815296
0.0019791668678535573,0.443309584119685
0.002196385372416547,0.4453241281359748
0.002437444150122222,0.44589202147727675
0.002704959730463137,0.44520224686986204
0.0030018358135755923,0.4434318165298849
0.003331294787934677,0.44072782911525327
0.0036969127071950323,0.43718747181322803
0.00410265810582719,0.4328501826883881
0.004552935074866948,0.42771261704657915
0.00505263106533568,0.42175600446226
0.005607169938205458,0.41496592611037
0.006222570836730231,0.4073374998641864
0.006905513520162331,0.39887518257518684
0.007663410868007463,0.38959630248642346
0.008504489341802686,0.37953600011329813
0.009437878277775391,0.3687461744931344
0.010473708979594508,0.35728746206323236
0.011623224686798541,0.3452206674031766
0.01289890261253308,0.33260333532256364
0.014314589375234785,0.31949115612153617
0.015885651294280528,0.30594037934213925
0.01762914118095948,0.292008667891688
0.01956398343517065,0.27775448335287106
0.021711179456945052,0.2632363022728949
0.02409403560239527,0.24851286956048055
0.026738416158399492,0.2336450100754696
0.029673024081888724,0.21869811126841215
0.032929712550971546,0.20374297239163075
0.036543830709572546,0.18885340511942683
0.040554607358408275,0.17410225682992655
0.04500557675700498,0.15956001098781378
0.0499450511585514,0.1452978919369312
0.05542664520663107,0.13139189294332446
0.06150985788580504,0.117921913961422
0.06826071834272393,0.104965053287337
0.0757525025877192,0.09258918214741615
0.08406652885618333,0.0808535581519495
0.09329304026284696,0.06981564006054222
0.10353218432956637,0.059535665388421685
0.11489510001873086,0.05007191637265792
0.1275051240713013,0.041469069069370215
0.1414991297434576,0.033749630348261915
0.15702901247293774,0.02691612438830455
0.17426333860096507,0.020961679685978205
0.19338917504552322,0.015878800263934994
0.21461411978584058,0.01165759893268716
0.23816855519761607,0.008273775853952933
0.2643081486974108,0.005675005019883
0.29331662783900486,0.003775629270742796
0.32550885998350565,0.002463798157275265
0.36123426997094304,0.0016176705976185398
0.40088063288984643,0.00112323527806857
0.4448782831127585,0.0008871437876274488
0.4937047852839004,0.000841686080507154
0.5478901179593945,0.0009427384883494968
0.6080224261649427,0.0011634904667694103
0.67475440531107,0.0014869542306154633
0.748810385759003,0.001899466957014054
0.8309941949353403,0.002386361738002267
0.9221978823334341,0.002930087339057248
1.0234114021054528,0.0035103954924133283
1.135733358343105,0.0041058078917499815
1.2603829296797273,0.00469545245642165
1.3987131026472386,0.00526052250402677
1.552225357427048,0.00578498248923431
1.7225859653987874,0.006255560290291305
1.9116440753857036,0.00666136030143344
2.121451784910632,0.006993507671365445
2.35428641432242,0.007245103341034012
2.612675225563332,0.00741152711485379
2.8994228538828812,0.007490895269007021
3.2176417502507353,0.007484361966533853
3.5707859649004625,0.007396000616689626
3.9626886387014784,0.007232196751585907
4.397603609302721,0.00700074236967626
4.880251583654434,0.0067100070008096315
5.415871378079476,0.006368544335625629
6.010276782070388,0.005985236543994629
6.669919663030129,0.0055696909595412646
7.401959996915652,0.0051323203272996805
8.214343584919439,0.004683597922412987
9.115888299750837,0.004232460067630402
10.11637979766207,0.0037845315450647132
11.226677735108158,0.0033413348587578474
12.458833642950081,0.0029014623421418414
13.826221737646593,0.002463721968923419
15.343684089300131,0.002030956423495622
17.02769172225898,0.001612440849330158
18.896523396912116,0.0012231978664865278
20.970464013232306,0.0008801604667830502
23.27202478960412,0.0005969076698215445
25.826187606826746,0.00037949555065868666
28.66067616948256,0.00022519474872184487
31.80625692794119,0.00012428831493565775
35.297073027306574,6.362091329192736e-05
39.17101490809261,3.013657453286627e-05
43.47013158125035,1.318675496907266e-05
48.241087041653735,5.322489394615609e-06
53.535666774107185,1.979388443642157e-06
59.411339849650396,6.776271055700634e-07
65.93188271333541,2.133906450680451e-07
73.16807143427206,6.177709504376346e-08
81.19844993184009,1.643382169276391e-08
90.11018251665037,4.015496292781097e-09
100.0,9.009309004645092e-10
