tau,gamma
1e-07,0.0007839055872284669
1.1097524964120721e-07,0.0017246233537141329
1.2315506032928263e-07,0.0031528615713669354
1.3667163564620074e-07,0.004826441942599064
1.5167168884709241e-07,0.006273003901091315
1.6831803533309585e-07,0.007087475464285542
1.867913599020781e-07,0.007206260001135517
2.0729217795953698e-07,0.006844143854255732
2.300430119772917e-07,0.006189338154450104
2.5529080682395163e-07,0.005256511125751269
2.833096101839324e-07,0.004035714474231622
3.1440354715915e-07,0.002654699454540829
3.489101213406774e-07,0.001316797461894496
3.872038781812557e-07,0.00014386535497103482
4.2970047043208437e-07,-0.0008464161415482919
4.768611697714474e-07,-0.0016462662828969294
5.291978735958437e-07,-0.0022177155455621205
5.872786613189477e-07,-0.002546457009190934
6.517339604882421e-07,-0.0026812711571811043
7.232633896483533e-07,-0.002700872990119462
8.026433522257174e-07,-0.002667032185433123
8.907354638610439e-07,-0.0026208789402206133
9.884959046625586e-07,-0.0025999876383641075
1.096985797892384e-06,-0.002634107107359644
1.217382727739662e-06,-0.002724819159343753
1.3509935211980278e-06,-0.0028393268190237296
1.499268432786047e-06,-0.0029232525857350216
1.6638168860761274e-06,-0.0029140763620442356
1.8464249428955464e-06,-0.0027467152102866746
2.049074689815846e-06,-0.0023596185919936693
2.2739657523579273e-06,-0.0017072288742556556
2.523539170434766e-06,-0.0007729277574824213
2.800503894183631e-06,0.000424604392631045
3.107866187782014e-06,0.0018312533836981378
3.4489622604057595e-06,0.0033601725534490234
3.827494478516315e-06,0.004897132727126955
4.247571552536894e-06,0.006310378722361453
4.713753134116729e-06,0.0074645491512808845
5.2310993080562585e-06,0.008235768566728637
5.805225516094895e-06,0.008525545309999851
6.44236350872137e-06,0.008272468665592484
7.149428986597577e-06,0.007460922075800764
7.934096665797492e-06,0.006125501546869687
8.804883581643465e-06,0.004350112916491782
9.771241535346501e-06,0.0022618984993683033
1.0843659686896109e-05,2.0828090085750953e-05
1.2033778407775906e-05,-0.0021939454932401238
1.3354515629298974e-05,-0.004199764946873335
1.48202070579886e-05,-0.005826730953411261
1.6446761779946626e-05,-0.006932850662246962
1.8251834943190462e-05,-0.007416671149233644
2.0255019392306664e-05,-0.007226305194885832
2.2478058335487252e-05,-0.0063641555435594195
2.4945081352303165e-05,-0.004887012056872091
2.7682866303920665e-05,-0.0029015181228074444
3.072112998861759e-05,-0.0005555203978219804
3.409285069746814e-05,0.001973959213513013
3.783462617131933e-05,0.00449515710183922
4.1987070844439056e-05,0.006817307419905902
4.659525668664687e-05,0.00876655191705402
5.170920242896755e-05,0.010200753076857716
5.7384416483024044e-05,0.011022092337015295
6.368249944718586e-05,0.011186380289053685
7.067181273927492e-05,0.010708186479390445
7.842822061337681e-05,0.009661168501452797
8.703591361485166e-05,0.008173241111582108
9.658832241158708e-05,0.0064167770305593235
0.00010718913192051276,0.004594409483063952
0.00011895340673703195,0.002921497640403434
0.0001320088400831418,0.0016067393569212348
0.00014649713983072864,0.0008326467362900701
0.0001625755666443795,0.0007378656485329523
0.00018041864093920718,0.0014031447394451011
0.00020022003718155845,0.0028425177376805656
0.0002221946860939524,0.005000782396491337
0.0002465811075822604,0.007757634749841815
0.0002736439997074672,0.010938242403868736
0.00030367711180354605,0.014329254993847951
0.00033700643292719284,0.017698776843100887
0.0003739937302478798,0.02081849966480122
0.0004150404757850477,0.023485986662784782
0.00046059220411451084,0.02554532571914717
0.0005111433483440171,0.02690449667127262
0.0005672426068491978,0.02754825032388384
0.0006294988990221888,0.027545722543201118
0.0006985879746785249,0.02705240508491834
0.0007752597488629464,0.02630664654587631
0.000860346441668451,0.025621041479683176
0.0009547716114208065,0.02536936889849558
0.001059560179277617,0.02596979292887276
0.0011758495540521582,0.027865037282986636
0.0013049019780144017,0.03150033249525575
0.001448118227674533,0.0372997847520385
0.0016070528182616384,0.04564198730961055
0.0017834308769319094,0.05683574364152559
0.0019791668678535573,0.07109697000924553
0.002196385372416547,0.08852810006823439
0.002437444150122222,0.10910122867594173
0.002704959730463137,0.13264638780501756
0.0030018358135755923,0.15884592010201273
0.003331294787934677,0.18723565844574608
0.0036969127071950323,0.21721318157735814
0.00410265810582719,0.24805284201070016
0.004552935074866948,0.27892737679336005
0.00505263106533568,0.3089354947353239
0.005607169938205458,0.3371352999692818
0.006222570836730231,0.36258316052936507
0.006905513520162331,0.38437738430742663
0.007663410868007463,0.4017053953819908
0.008504489341802686,0.41389138974356593
0.009437878277775391,0.4204404823893144
0.010473708979594508,0.42107374877144577
0.011623224686798541,0.41574941105456775
0.01289890261253308,0.40466666989275524
0.014314589375234785,0.38825150312593737
0.015885651294280528,0.3671271202600142
0.01762914118095948,0.3420731860669459
0.01956398343517065,0.31397937779100754
0.021711179456945052,0.28379762308355605
0.02409403560239527,0.2524963436403146
0.026738416158399492,0.22101846032339947
0.029673024081888724,0.19024384987443582
0.032929712550971546,0.16095690105744195
0.036543830709572546,0.1338195330949066
0.040554607358408275,0.10935081158778646
0.04500557675700498,0.0879140926350664
0.0499450511585514,0.06971271441603467
0.05542664520663107,0.0547947402235189
0.06150985788580504,0.04306632485860095
0.06826071834272393,0.034312635100262556
0.0757525025877192,0.028224153284638225
0.08406652885618333,0.024425866954446658
0.09329304026284696,0.022506629361412615
0.10353218432956637,0.022046162498462626
0.11489510001873086,0.02263776899738102
0.1275051240713013,0.02390534888043282
0.1414991297434576,0.025514216362368648
0.15702901247293774,0.027175912725855206
0.17426333860096507,0.028647855220877157
0.19338917504552322,0.02972915391515323
0.21461411978584058,0.03025411684124072
0.23816855519761607,0.030085085239134637
0.2643081486974108,0.029106028737392483
0.29331662783900486,0.0272180378341975
0.32550885998350565,0.024337412174602148
0.36123426997094304,0.020396628453918316
0.40088063288984643,0.015348068507842816
0.4448782831127585,0.009169977845104838
0.4937047852839004,0.0018738375664412025
0.5478901179593945,-0.006487964717364693
0.6080224261649427,-0.015815313135628922
0.67475440531107,-0.025955624569467105
0.748810385759003,-0.03670224705357546
0.8309941949353403,-0.047796801769564336
0.9221978823334341,-0.05893593341326795
1.0234114021054528,-0.0697823872067743
1.135733358343105,-0.07998008443744033
1.2603829296797273,-0.08917229963174728
1.3987131026472386,-0.09702176848626669
1.552225357427048,-0.10323117808231784
1.7225859653987874,-0.10756232782927679
1.9116440753857036,-0.10985247150651004
2.121451784910632,-0.11002622549231811
2.35428641432242,-0.10810185257602463
2.612675225563332,-0.10419105048583972
2.8994228538828812,-0.09849233344862406
3.2176417502507353,-0.09127881252974306
3.5707859649004625,-0.08288119099112833
3.9626886387014784,-0.07366714935612324
4.397603609302721,-0.06401871545112282
4.880251583654434,-0.054309997938660245
5.415871378079476,-0.04488700171752163
6.010276782070388,-0.03605002986104588
6.669919663030129,-0.02803928414395632
7.401959996915652,-0.021025350888161213
8.214343584919439,-0.015106259488098578
9.115888299750837,-0.010310108956577982
10.11637979766207,-0.006600690759004628
11.226677735108158,-0.00388560458864572
12.458833642950081,-0.0020287342513440067
13.826221737646593,-0.000867157182529406
15.343684089300131,-0.00022861555614815164
17.02769172225898,5.358147854313995e-05
18.896523396912116,0.00012689738059956722
20.970464013232306,0.0001057799158725088
23.27202478960412,6.236268518182508e-05
25.826187606826746,2.877503002273937e-05
28.66067616948256,1.0710193129622555e-05
31.80625692794119,3.251712729807989e-06
35.297073027306574,8.089919442368268e-07
39.17101490809261,1.6525828673255516e-07
43.47013158125035,2.7744240064722268e-08
48.241087041653735,3.829750080329405e-09
53.535666774107185,4.347683388565619e-10
59.411339849650396,4.059667875665197e-11
65.93188271333541,3.1181682985805577e-12
73.16807143427206,1.9701690720118324e-13
81.19844993184009,1.0240319879714595e-14
90.11018251665037,4.3786129396446766e-16
100.0,1.540199414187443e-17
