tau,gamma
1e-07,-0.00785957022010535
1.1097524964120721e-07,-0.040408625595039285
1.2315506032928263e-07,-0.14123761276400643
1.3667163564620074e-07,-0.34585460694987125
1.5167168884709241e-07,-0.629218222396416
1.6831803533309585e-07,-0.9289774443561133
1.867913599020781e-07,-1.2143372431568566
2.0729217795953698e-07,-1.483182990136717
2.300430119772917e-07,-1.7403445406166491
2.5529080682395163e-07,-1.9842252059618453
2.833096101839324e-07,-2.2103711452702286
3.1440354715915e-07,-2.418116392133763
3.489101213406774e-07,-2.602837068788099
3.872038781812557e-07,-2.763733031849512
4.2970047043208437e-07,-2.8947820813068135
4.768611697714474e-07,-2.9972690270128544
5.291978735958437e-07,-3.0721465972092465
5.872786613189477e-07,-3.124409804766153
6.517339604882421e-07,-3.1590756045745296
7.232633896483533e-07,-3.167406787455241
8.026433522257174e-07,-3.1308372145454704
8.907354638610439e-07,-3.0351653515800447
9.884959046625586e-07,-2.8995433258689305
1.096985797892384e-06,-2.7430654697534385
1.217382727739662e-06,-2.5726108242419383
1.3509935211980278e-06,-2.382626792245206
1.499268432786047e-06,-2.171510528160892
1.6638168860761274e-06,-1.9435520905650412
1.8464249428955464e-06,-1.7018991983254643
2.049074689815846e-06,-1.4539863535004574
2.2739657523579273e-06,-1.2031412918390607
2.523539170434766e-06,-0.9563655520786032
2.800503894183631e-06,-0.718059158353981
3.107866187782014e-06,-0.4938934818329079
3.4489622604057595e-06,-0.2895905404723369
3.827494478516315e-06,-0.1090882339404817
4.247571552536894e-06,0.04220763799273415
4.713753134116729e-06,0.16220118836213446
5.2310993080562585e-06,0.248442499111779
5.805225516094895e-06,0.3010700888256846
6.44236350872137e-06,0.32244015221375955
7.149428986597577e-06,0.31547330506502413
7.934096665797492e-06,0.2861458860279005
8.804883581643465e-06,0.23989849025992185
9.771241535346501e-06,0.18348708164491642
1.0843659686896109e-05,0.12341713292898197
1.2033778407775906e-05,0.06518985200698782
1.3354515629298974e-05,0.014343780019829994
1.48202070579886e-05,-0.02578781743947243
1.6446761779946626e-05,-0.05263110965598714
1.8251834943190462e-05,-0.06535554423226136
2.0255019392306664e-05,-0.06495314906477162
2.2478058335487252e-05,-0.05302711961703923
2.4945081352303165e-05,-0.03274322750881099
2.7682866303920665e-05,-0.007324213961270219
3.072112998861759e-05,0.019893712111472978
3.409285069746814e-05,0.04557232342532108
3.783462617131933e-05,0.06747152965544946
4.1987070844439056e-05,0.08361806328840611
4.659525668664687e-05,0.09323057155953351
5.170920242896755e-05,0.09633104894331744
5.7384416483024044e-05,0.0934660287242084
6.368249944718586e-05,0.08614702093743186
7.067181273927492e-05,0.07587115138841595
7.842822061337681e-05,0.06459821992125163
8.703591361485166e-05,0.0541691678560592
9.658832241158708e-05,0.04616250336454461
0.00010718913192051276,0.04201479013380852
0.00011895340673703195,0.04253618033266481
0.0001320088400831418,0.04814006724916191
0.00014649713983072864,0.05874586660477446
0.0001625755666443795,0.073584247356963
0.00018041864093920718,0.0916568336772632
0.00020022003718155845,0.11140746856968872
0.0002221946860939524,0.13108319275363614
0.0002465811075822604,0.14902528214917676
0.0002736439997074672,0.1632928520224294
0.00030367711180354605,0.17271468838846463
0.00033700643292719284,0.17606640433943063
0.0003739937302478798,0.17299180018848848
0.0004150404757850477,0.16370557698615942
0.00046059220411451084,0.14880697635882792
0.0005111433483440171,0.12992165676059086
0.0005672426068491978,0.10858890291678223
0.0006294988990221888,0.08708367177609005
0.0006985879746785249,0.06752751503157395
0.0007752597488629464,0.05190277820350038
0.000860346441668451,0.04208462701858208
0.0009547716114208065,0.03911145378639153
0.001059560179277617,0.04361051230681217
0.0011758495540521582,0.05539679463506349
0.0013049019780144017,0.07337387877659393
0.001448118227674533,0.09610885608031762
0.0016070528182616384,0.12128899165191409
0.0017834308769319094,0.14652282670487354
0.0019791668678535573,0.16941651670024477
0.002196385372416547,0.18743270415132823
0.002437444150122222,0.199089265902974
0.002704959730463137,0.2028996686403511
0.0030018358135755923,0.19868088145298404
0.003331294787934677,0.18682744399831022
0.0036969127071950323,0.16832405749442972
0.00410265810582719,0.14517171717166807
0.004552935074866948,0.11914873586336497
0.00505263106533568,0.0927197259697052
0.005607169938205458,0.06789593404679585
0.006222570836730231,0.04649511116640434
0.006905513520162331,0.030030215878580284
0.007663410868007463,0.01918627765865204
0.008504489341802686,0.014356508246272635
0.009437878277775391,0.0152100769887085
0.010473708979594508,0.020962195024870685
0.011623224686798541,0.03065129373229314
0.01289890261253308,0.04292389523550663
0.014314589375234785,0.05661796848396018
0.015885651294280528,0.07060765912869213
0.01762914118095948,0.08393480367412778
0.01956398343517065,0.09608338137846015
0.021711179456945052,0.10652592285913674
0.02409403560239527,0.11517306458093994
0.026738416158399492,0.12180254687833439
0.029673024081888724,0.12632981915375022
0.032929712550971546,0.12852696606366412
0.036543830709572546,0.12805458267639064
0.040554607358408275,0.12463626848510208
0.04500557675700498,0.11782681747919166
0.0499450511585514,0.10767752138159167
0.05542664520663107,0.094227323536517
0.06150985788580504,0.07828405204370549
0.06826071834272393,0.06102164281556198
0.0757525025877192,0.044085261567655666
0.08406652885618333,0.029771419791258653
0.09329304026284696,0.02022284124349226
0.10353218432956637,0.01784629365948823
0.11489510001873086,0.02455443449966504
0.1275051240713013,0.041478841829539995
0.1414991297434576,0.06928291236828565
0.15702901247293774,0.10720082881747343
0.17426333860096507,0.15387763482855538
0.19338917504552322,0.20720018069429894
0.21461411978584058,0.2641126469045799
0.23816855519761607,0.32214946418989615
0.2643081486974108,0.37800998161482235
0.29331662783900486,0.4296225205035164
0.32550885998350565,0.47504555850060665
0.36123426997094304,0.513024079478383
0.40088063288984643,0.5435963472727803
0.4448782831127585,0.5665052060941613
0.4937047852839004,0.5831575837760018
0.5478901179593945,0.5941386340021707
0.6080224261649427,0.6011637353443431
0.67475440531107,0.6052273913595655
0.748810385759003,0.6076034511563336
0.8309941949353403,0.6092737443927224
0.9221978823334341,0.6107946779673161
1.0234114021054528,0.6129097242776944
1.135733358343105,0.6154960743115732
1.2603829296797273,0.6190180715001159
1.3987131026472386,0.622871092490332
1.552225357427048,0.6272656040537764
1.7225859653987874,0.6313956854798026
1.9116440753857036,0.635211382151937
2.121451784910632,0.638005730480651
2.35428641432242,0.6394296866145065
2.612675225563332,0.6391036750866073
2.8994228538828812,0.6363852779354625
3.2176417502507353,0.6312901019287365
3.5707859649004625,0.6230039460289301
3.9626886387014784,0.6118195654557798
4.397603609302721,0.5969841285185056
4.880251583654434,0.5788339399482162
5.415871378079476,0.5569296814864427
6.010276782070388,0.5314312180939871
6.669919663030129,0.5023601983113672
7.401959996915652,0.46963681969604826
8.214343584919439,0.433712813821097
9.115888299750837,0.39432533413213766
10.11637979766207,0.3520923658636147
11.226677735108158,0.30696583072630873
12.458833642950081,0.2598287848245081
13.826221737646593,0.21054611417080182
15.343684089300131,0.15825556325480333
17.02769172225898,0.10385107933457383
18.896523396912116,0.05433626558005426
20.970464013232306,0.020838768023907855
23.27202478960412,0.0055577460548184516
25.826187606826746,0.0010042309495124256
28.66067616948256,0.00012152530491958299
31.80625692794119,9.801545818746623e-06
35.297073027306574,5.258391590648605e-07
39.17101490809261,1.874950628466075e-08
43.47013158125035,4.4418359569014966e-10
48.241087041653735,6.990578395043087e-12
53.535666774107185,7.308330806769742e-14
59.411339849650396,5.075376839882024e-16
65.93188271333541,2.3413134584536204e-18
73.16807143427206,7.174480305802422e-21
81.19844993184009,1.4603613267691567e-23
90.11018251665037,1.974553631059475e-26
100.0,1.7734386813897482e-29
