tau,gamma
1e-07,0.0006590167624301625
1.1097524964120721e-07,0.0015123923568762009
1.2315506032928263e-07,0.0029439396149885857
1.3667163564620074e-07,0.004936627349830109
1.5167168884709241e-07,0.0072878863623530845
1.6831803533309585e-07,0.009738129847693648
1.867913599020781e-07,0.012140032259951113
2.0729217795953698e-07,0.014496964027649715
2.300430119772917e-07,0.016861893332840328
2.5529080682395163e-07,0.019244893993744364
2.833096101839324e-07,0.0216205022735241
3.1440354715915e-07,0.023977108766352194
3.489101213406774e-07,0.02632633332583452
3.872038781812557e-07,0.028677524578978052
4.2970047043208437e-07,0.03102616876822722
4.768611697714474e-07,0.03336596634769685
5.291978735958437e-07,0.03569842876897506
5.872786613189477e-07,0.03802800844861953
6.517339604882421e-07,0.040355310141062604
7.232633896483533e-07,0.04267839151618496
8.026433522257174e-07,0.044997057489430954
8.907354638610439e-07,0.047313070974485005
9.884959046625586e-07,0.04962765899873964
1.096985797892384e-06,0.05194080216648787
1.217382727739662e-06,0.05425254043802157
1.3509935211980278e-06,0.056563677498261924
1.499268432786047e-06,0.058875169440555604
1.6638168860761274e-06,0.06118755393018058
1.8464249428955464e-06,0.0635011779952244
2.049074689815846e-06,0.0658165772776915
2.2739657523579273e-06,0.06813442466198374
2.523539170434766e-06,0.07045529091344371
2.800503894183631e-06,0.07277961348585721
3.107866187782014e-06,0.07510783401363903
3.4489622604057595e-06,0.07744043981023115
3.827494478516315e-06,0.07977790034454592
4.247571552536894e-06,0.08212061960559891
4.713753134116729e-06,0.08446897191588873
5.2310993080562585e-06,0.08682333241219797
5.805225516094895e-06,0.08918406936447008
6.44236350872137e-06,0.09155152378217313
7.149428986597577e-06,0.09392601043756435
7.934096665797492e-06,0.09630783611792844
8.804883581643465e-06,0.09869729894660535
9.771241535346501e-06,0.10109468935781682
1.0843659686896109e-05,0.10350028324794996
1.2033778407775906e-05,0.1059143547824936
1.3354515629298974e-05,0.10833717643393904
1.48202070579886e-05,0.11076902513076825
1.6446761779946626e-05,0.11321018107214581
1.8251834943190462e-05,0.11566093208440156
2.0255019392306664e-05,0.11812157964450982
2.2478058335487252e-05,0.12059243811598663
2.4945081352303165e-05,0.12307384243516162
2.7682866303920665e-05,0.1255661433929739
3.072112998861759e-05,0.1280697180767274
3.409285069746814e-05,0.1305849640105923
3.783462617131933e-05,0.13311230782406966
4.1987070844439056e-05,0.13565220034735287
4.659525668664687e-05,0.1382051213377227
5.170920242896755e-05,0.14077157809868948
5.7384416483024044e-05,0.14335210364459836
6.368249944718586e-05,0.14594725861995964
7.067181273927492e-05,0.14855762214186932
7.842822061337681e-05,0.15118379504426166
8.703591361485166e-05,0.15382638376971716
9.658832241158708e-05,0.15648600049177008
0.00010718913192051276,0.15916324150675928
0.00011895340673703195,0.16185867886446872
0.0001320088400831418,0.16457283430519443
0.00014649713983072864,0.1673061572755772
0.0001625755666443795,0.17005899530022178
0.00018041864093920718,0.17283155580290938
0.00020022003718155845,0.17562387161042817
0.0002221946860939524,0.1784357461107976
0.0002465811075822604,0.1812667128397293
0.0002736439997074672,0.18411596912164868
0.00030367711180354605,0.18698232725428224
0.00033700643292719284,0.1898641402153572
0.0003739937302478798,0.1927592431291763
0.0004150404757850477,0.19566488210704347
0.00046059220411451084,0.19857764821693882
0.0005111433483440171,0.2014934090476863
0.0005672426068491978,0.20440723222022308
0.0006294988990221888,0.20731333002306984
0.0006985879746785249,0.2102049895785227
0.0007752597488629464,0.21307452769820248
0.000860346441668451,0.21591322512159994
0.0009547716114208065,0.21871131647459516
0.001059560179277617,0.22145800656982204
0.0011758495540521582,0.22414154476426426
0.0013049019780144017,0.22674930959165351
0.001448118227674533,0.22926790922018814
0.0016070528182616384,0.23168325661391323
0.0017834308769319094,0.23398043367710292
0.0019791668678535573,0.2361431410280637
0.002196385372416547,0.23815258119547836
0.002437444150122222,0.23998604965050166
0.002704959730463137,0.24161571071628987
0.0030018358135755923,0.2430084680952418
0.003331294787934677,0.24412802077009166
0.0036969127071950323,0.24494012196749973
0.00410265810582719,0.24542087120937478
0.004552935074866948,0.24556661873262303
0.00505263106533568,0.24540514527726506
0.005607169938205458,0.24500919978196592
0.006222570836730231,0.2445036263855979
0.006905513520162331,0.24403266344127245
0.007663410868007463,0.24365335441739727
0.008504489341802686,0.24319427759148116
0.009437878277775391,0.24221755026883088
0.010473708979594508,0.2401899135687208
0.011623224686798541,0.2367746858352052
0.01289890261253308,0.23201983961805303
0.014314589375234785,0.22630968441736604
0.015885651294280528,0.22014207166537092
0.01762914118095948,0.21389312587258708
0.01956398343517065,0.20770392242693186
0.021711179456945052,0.2015200019970441
0.02409403560239527,0.19520940725312108
0.026738416158399492,0.18866037895667728
0.029673024081888724,0.1818179192558995
0.032929712550971546,0.17467777289306163
0.036543830709572546,0.1672682310995245
0.040554607358408275,0.1596344357727413
0.04500557675700498,0.1518273946060353
0.0499450511585514,0.14389734684459385
0.05542664520663107,0.13589103732466415
0.06150985788580504,0.12785177343842188
0.06826071834272393,0.11982055731424757
0.0757525025877192,0.11183711352036523
0.08406652885618333,0.1039403663568084
0.09329304026284696,0.09616840226195804
0.10353218432956637,0.08855814599235161
0.11489510001873086,0.0811449140266407
0.1275051240713013,0.07396200844639543
0.1414991297434576,0.0670403635915848
0.15702901247293774,0.060408262854070485
0.17426333860096507,0.05409107551229871
0.19338917504552322,0.048111016143167505
0.21461411978584058,0.042486938119730075
0.23816855519761607,0.03723417246848998
0.2643081486974108,0.03236443082653367
0.29331662783900486,0.027885736388145736
0.32550885998350565,0.023802392714656742
0.36123426997094304,0.020115004663777768
0.40088063288984643,0.016820602914280152
0.4448782831127585,0.01391283336656437
0.4937047852839004,0.011382131482564527
0.5478901179593945,0.009215894273912097
0.6080224261649427,0.007398766957086389
0.67475440531107,0.005913071736541106
0.748810385759003,0.004739151594736787
0.8309941949353403,0.0038554932715605473
0.9221978823334341,0.0032389059199605915
1.0234114021054528,0.002865119093113676
1.135733358343105,0.002709553086520174
1.2603829296797273,0.0027476043711738055
1.3987131026472386,0.002954468529933248
1.552225357427048,0.0033052990615362182
1.7225859653987874,0.0037758498240287454
1.9116440753857036,0.004342496858907232
2.121451784910632,0.004981243245839771
2.35428641432242,0.005667491482218308
2.612675225563332,0.006377906317547077
2.8994228538828812,0.007091921965422571
3.2176417502507353,0.007789689008052335
3.5707859649004625,0.0084490766544738
3.9626886387014784,0.009047891732268646
4.397603609302721,0.00956970640371594
4.880251583654434,0.010003012747904522
5.415871378079476,0.010332095917429807
6.010276782070388,0.010534901717881653
6.669919663030129,0.010596449274592053
7.401959996915652,0.010517900195312534
8.214343584919439,0.01030035770739343
9.115888299750837,0.009924963472810713
10.11637979766207,0.009369321685930172
11.226677735108158,0.008644677746519799
12.458833642950081,0.007788392188600381
13.826221737646593,0.006806164437050993
15.343684089300131,0.005656975575288569
17.02769172225898,0.0043371437237930315
18.896523396912116,0.0029694134854796393
20.970464013232306,0.0017672012466398615
23.27202478960412,0.0008967061710499752
25.826187606826746,0.00038298047619796295
28.66067616948256,0.00013654429752123044
31.80625692794119,4.0425570121088956e-05
35.297073027306574,9.90537981266767e-06
39.17101490809261,2.0044291107931754e-06
43.47013158125035,3.3451835196541195e-07
48.241087041653735,4.600192323139258e-08
53.535666774107185,5.2096877661542415e-09
59.411339849650396,4.856990327432446e-10
65.93188271333541,3.726825888249931e-11
73.16807143427206,2.3532072873600307e-12
81.19844993184009,1.2226072060570187e-13
90.11018251665037,5.226261716871217e-15
100.0,1.8380378752058972e-16
