tau,gamma
1e-07,0.34957173579910644
1.1097524964120721e-07,0.7576394951644515
1.2315506032928263e-07,1.350887167704098
1.3667163564620074e-07,1.9815676863863871
1.5167168884709241e-07,2.3913200516078863
1.6831803533309585e-07,2.374191662311079
1.867913599020781e-07,1.9393820910804576
2.0729217795953698e-07,1.3035370129219146
2.300430119772917e-07,0.7210982403487797
2.5529080682395163e-07,0.32849388206915
2.833096101839324e-07,0.12343374282766895
3.1440354715915e-07,0.03845977172821969
3.489101213406774e-07,0.010130562989797236
3.872038781812557e-07,0.0024345798932953766
4.2970047043208437e-07,0.0006879488257738594
4.768611697714474e-07,0.0003273109124225269
5.291978735958437e-07,0.00023749712152665834
5.872786613189477e-07,0.00019781059354252747
6.517339604882421e-07,0.00017054468994080348
7.232633896483533e-07,0.00014892855588917713
8.026433522257174e-07,0.00013109171869757824
8.907354638610439e-07,0.00011614577696315681
9.884959046625586e-07,0.00010352026449889587
1.096985797892384e-06,9.279379880207026e-05
1.217382727739662e-06,8.363476438705392e-05
1.3509935211980278e-06,7.577572928380155e-05
1.499268432786047e-06,6.899902260763322e-05
1.6638168860761274e-06,6.31265131642879e-05
1.8464249428955464e-06,5.8011713225159316e-05
2.049074689815846e-06,5.353366794733826e-05
2.2739657523579273e-06,4.9592271714587295e-05
2.523539170434766e-06,4.6104674011949204e-05
2.800503894183631e-06,4.3002448066044045e-05
3.107866187782014e-06,4.022927441399964e-05
3.4489622604057595e-06,3.7738951244715874e-05
3.827494478516315e-06,3.549362842748367e-05
4.247571552536894e-06,3.346221395619201e-05
4.713753134116729e-06,3.161894929442798e-05
5.2310993080562585e-06,2.9942177909439014e-05
5.805225516094895e-06,2.8413330843847436e-05
6.44236350872137e-06,2.7016154038856943e-05
7.149428986597577e-06,2.5736171363016424e-05
7.934096665797492e-06,2.456036501927767e-05
8.804883581643465e-06,2.347702396183484e-05
9.771241535346501e-06,2.24757072467343e-05
1.0843659686896109e-05,2.1547257392743474e-05
1.2033778407775906e-05,2.068381372229903e-05
1.3354515629298974e-05,1.9878784827072978e-05
1.48202070579886e-05,1.9126762553529557e-05
1.6446761779946626e-05,1.8423378857917734e-05
1.8251834943190462e-05,1.7765119332932343e-05
2.0255019392306664e-05,1.7149121280530897e-05
2.2478058335487252e-05,1.6572977933521502e-05
2.4945081352303165e-05,1.6034573485302865e-05
2.7682866303920665e-05,1.553195704682923e-05
3.072112998861759e-05,1.5063261413364193e-05
3.409285069746814e-05,1.4626658710711002e-05
3.783462617131933e-05,1.4220345129731403e-05
4.1987070844439056e-05,1.384254253495139e-05
4.659525668664687e-05,1.3491508095796868e-05
5.170920242896755e-05,1.3165546716846503e-05
5.7384416483024044e-05,1.2863022995449637e-05
6.368249944718586e-05,1.2582375735245257e-05
7.067181273927492e-05,1.2322134881512565e-05
7.842822061337681e-05,1.2080945497514325e-05
8.703591361485166e-05,1.185759627523119e-05
9.658832241158708e-05,1.1651053191455681e-05
0.00010718913192051276,1.1460492192921552e-05
0.00011895340673703195,1.1285327938955506e-05
0.0001320088400831418,1.1125232840814344e-05
0.00014649713983072864,1.098014334219801e-05
0.0001625755666443795,1.0850252146286455e-05
0.00018041864093920718,1.073598552650065e-05
0.00020022003718155845,1.0637969685158524e-05
0.0002221946860939524,1.055698782403131e-05
0.0002465811075822604,1.049393538146142e-05
0.0002736439997074672,1.0449776898936235e-05
0.00030367711180354605,1.0425512514948176e-05
0.00033700643292719284,1.0422157709637157e-05
0.0003739937302478798,1.0440741780893769e-05
0.0004150404757850477,1.0482326937874289e-05
0.00046059220411451084,1.0548049286634284e-05
0.0005111433483440171,1.0639181306970972e-05
0.0005672426068491978,1.0757213290143718e-05
0.0006294988990221888,1.0903952272141084e-05
0.0006985879746785249,1.108163408630268e-05
0.0007752597488629464,1.1293048121288296e-05
0.000860346441668451,1.1541671564420515e-05
0.0009547716114208065,1.183181631690385e-05
0.001059560179277617,1.2168790546580314e-05
0.0011758495540521582,1.2559084674645921e-05
0.0013049019780144017,1.3010593716842695e-05
0.001448118227674533,1.3532896305757936e-05
0.0016070528182616384,1.4137618148969611e-05
0.0017834308769319094,1.4838918152581302e-05
0.0019791668678535573,1.565415196460205e-05
0.002196385372416547,1.6604786955751417e-05
0.002437444150122222,1.7717678186923015e-05
0.002704959730463137,1.9026860393337035e-05
0.0030018358135755923,2.0576092347913585e-05
0.003331294787934677,2.2422508720802544e-05
0.0036969127071950323,2.464194591052687e-05
0.00410265810582719,2.7336874110048412e-05
0.004552935074866948,3.064861017823692e-05
0.00505263106533568,3.4777154148961834e-05
0.005607169938205458,4.001656879285739e-05
0.006222570836730231,4.683141137741397e-05
0.006905513520162331,5.610048286236627e-05
0.007663410868007463,7.032627905854319e-05
0.008504489341802686,0.00010069562328659444
0.009437878277775391,0.00020495767045323205
0.010473708979594508,0.0006549492860737912
0.011623224686798541,0.0025144660529149193
0.01289890261253308,0.0091065193685798
0.014314589375234785,0.02844120195115571
0.015885651294280528,0.07464174363923905
0.01762914118095948,0.16356721962065104
0.01956398343517065,0.2994699875057325
0.021711179456945052,0.4601021956391005
0.02409403560239527,0.5977013829117734
0.026738416158399492,0.6636296539382408
0.029673024081888724,0.6385044922226348
0.032929712550971546,0.540724145531978
0.036543830709572546,0.4090736558700647
0.040554607358408275,0.2793595572606259
0.04500557675700498,0.17272585926077894
0.0499450511585514,0.09624342017726153
0.05542664520663107,0.04792865076362647
0.06150985788580504,0.021278590857537385
0.06826071834272393,0.008663569016750753
0.0757525025877192,0.0037193920459210874
0.08406652885618333,0.0024335851346416804
0.09329304026284696,0.0030167606972417963
0.10353218432956637,0.005259144022417234
0.11489510001873086,0.009955212902518582
0.1275051240713013,0.018382066667776076
0.1414991297434576,0.03142747034160709
0.15702901247293774,0.04825460909627522
0.17426333860096507,0.0653519368754746
0.19338917504552322,0.07739159893479938
0.21461411978584058,0.08007223598727603
0.23816855519761607,0.07281724018483805
0.2643081486974108,0.058900697653619556
0.29331662783900486,0.04310430314638754
0.32550885998350565,0.029174852538635547
0.36123426997094304,0.018790981829514084
0.40088063288984643,0.011951002996719218
0.4448782831127585,0.007847233256543353
0.4937047852839004,0.0055512377718192375
0.5478901179593945,0.004336293974421751
0.6080224261649427,0.0037389278732858004
0.67475440531107,0.0035087751122239567
0.748810385759003,0.0035436622428990606
0.8309941949353403,0.0038484553985831016
0.9221978823334341,0.004521490689969603
1.0234114021054528,0.005752449023991622
1.135733358343105,0.0077970956408389015
1.2603829296797273,0.010880899075598397
1.3987131026472386,0.015001272848211946
1.552225357427048,0.01968240219144172
1.7225859653987874,0.023877626209740918
1.9116440753857036,0.026263689029237106
2.121451784910632,0.025911767265021247
2.35428641432242,0.022872985524192636
2.612675225563332,0.01815441288256219
2.8994228538828812,0.01310819069291777
3.2176417502507353,0.00877046945057891
3.5707859649004625,0.0055850701202261694
3.9626886387014784,0.003510588223996751
4.397603609302721,0.002273278905717624
4.880251583654434,0.001573344020634086
5.415871378079476,0.0011828674758468827
6.010276782070388,0.0009606157119604547
6.669919663030129,0.0008333030974182598
7.401959996915652,0.00078215684660717
8.214343584919439,0.0008564421043136669
9.115888299750837,0.0012118137212662407
10.11637979766207,0.0021189306917675614
11.226677735108158,0.0038314859505166644
12.458833642950081,0.0062717761021446146
13.826221737646593,0.008762636345584121
15.343684089300131,0.010220101861611408
17.02769172225898,0.00986744382388226
18.896523396912116,0.00786001382325107
20.970464013232306,0.005158026553485769
23.27202478960412,0.002786732277627284
25.826187606826746,0.001239123268057592
28.66067616948256,0.0004533832588538248
31.80625692794119,0.00013649159159244515
35.297073027306574,3.3807355041137315e-05
39.17101490809261,6.8891651286969715e-06
43.47013158125035,1.1549494986762247e-06
48.241087041653735,1.592922651180218e-07
53.535666774107185,1.8074157157573057e-08
59.411339849650396,1.6871386655143944e-09
65.93188271333541,1.2956012933629817e-10
73.16807143427206,8.185003640100324e-12
81.19844993184009,4.2539528285874026e-13
90.11018251665037,1.818831007352193e-14
100.0,6.397608429057769e-16
