tau,gamma
1e-07,2.3703329848083843e-08
1.1097524964120721e-07,2.0394379520286877e-07
1.2315506032928263e-07,1.0289343778018227e-06
1.3667163564620074e-07,3.1014644280819716e-06
1.5167168884709241e-07,5.900134643640484e-06
1.6831803533309585e-07,8.039549035873547e-06
1.867913599020781e-07,9.28472344155529e-06
2.0729217795953698e-07,9.873739389287632e-06
2.300430119772917e-07,9.955044901889751e-06
2.5529080682395163e-07,9.750073476022048e-06
2.833096101839324e-07,9.233371202544056e-06
3.1440354715915e-07,8.610276162549047e-06
3.489101213406774e-07,7.878243895466968e-06
3.872038781812557e-07,7.144842979718291e-06
4.2970047043208437e-07,6.424492371692608e-06
4.768611697714474e-07,5.738812537105358e-06
5.291978735958437e-07,5.121052720245989e-06
5.872786613189477e-07,4.546761731540099e-06
6.517339604882421e-07,4.054652895586754e-06
7.232633896483533e-07,3.6069894859361957e-06
8.026433522257174e-07,3.2341589131110407e-06
8.907354638610439e-07,2.9034316972752104e-06
9.884959046625586e-07,2.6316641150364776e-06
1.096985797892384e-06,2.397497978992294e-06
1.217382727739662e-06,2.205499083381039e-06
1.3509935211980278e-06,2.0458372543829993e-06
1.499268432786047e-06,1.913961074293662e-06
1.6638168860761274e-06,1.809533634786262e-06
1.8464249428955464e-06,1.7218232964618746e-06
2.049074689815846e-06,1.6572930508240296e-06
2.2739657523579273e-06,1.6015689488610529e-06
2.523539170434766e-06,1.564848850610343e-06
2.800503894183631e-06,1.531674397836381e-06
3.107866187782014e-06,1.5125660690772966e-06
3.4489622604057595e-06,1.4938713961773816e-06
3.827494478516315e-06,1.4828588039880868e-06
4.247571552536894e-06,1.4708956672815747e-06
4.713753134116729e-06,1.4588711877813819e-06
5.2310993080562585e-06,1.4459593065944708e-06
5.805225516094895e-06,1.4253246138872403e-06
6.44236350872137e-06,1.4045028748785143e-06
7.149428986597577e-06,1.3709382728992085e-06
7.934096665797492e-06,1.3373629406295648e-06
8.804883581643465e-06,1.2907673404087316e-06
9.771241535346501e-06,1.2432245582147774e-06
1.0843659686896109e-05,1.1870050401208802e-06
1.2033778407775906e-05,1.1284367380663218e-06
1.3354515629298974e-05,1.06771714183113e-06
1.48202070579886e-05,1.0040289852976171e-06
1.6446761779946626e-05,9.438618945450965e-07
1.8251834943190462e-05,8.814898021991908e-07
2.0255019392306664e-05,8.257019254618309e-07
2.2478058335487252e-05,7.694279168614912e-07
2.4945081352303165e-05,7.201652860684868e-07
2.7682866303920665e-05,6.7230938975186e-07
3.072112998861759e-05,6.301797596161e-07
3.409285069746814e-05,5.910159499251174e-07
3.783462617131933e-05,5.556296500682523e-07
4.1987070844439056e-05,5.242440919203385e-07
4.659525668664687e-05,4.948284608334404e-07
5.170920242896755e-05,4.6987219080135136e-07
5.7384416483024044e-05,4.457007318590231e-07
6.368249944718586e-05,4.2587952232028906e-07
7.067181273927492e-05,4.0644390215700655e-07
7.842822061337681e-05,3.9076496374868606e-07
8.703591361485166e-05,3.757369553661225e-07
9.658832241158708e-05,3.635571237284304e-07
0.00010718913192051276,3.52663525966075e-07
0.00011895340673703195,3.4360394830105796e-07
0.0001320088400831418,3.3652265007099245e-07
0.00014649713983072864,3.3034365603870163e-07
0.0001625755666443795,3.2665561411928004e-07
0.00018041864093920718,3.231622573866593e-07
0.00020022003718155845,3.2233530490982485e-07
0.0002221946860939524,3.213055658974678e-07
0.0002465811075822604,3.2267804599053566e-07
0.0002736439997074672,3.237833838258559e-07
0.00030367711180354605,3.265476566218522e-07
0.00033700643292719284,3.292797776176086e-07
0.0003739937302478798,3.325272916707644e-07
0.0004150404757850477,3.362001687606508e-07
0.00046059220411451084,3.3913015651787857e-07
0.0005111433483440171,3.4303163234366563e-07
0.0005672426068491978,3.453193601815078e-07
0.0006294988990221888,3.4902824930351403e-07
0.0006985879746785249,3.5112531684873273e-07
0.0007752597488629464,3.548783675217518e-07
0.000860346441668451,3.580073793410118e-07
0.0009547716114208065,3.628839482616709e-07
0.001059560179277617,3.6881676964026884e-07
0.0011758495540521582,3.766710946399377e-07
0.0013049019780144017,3.876273174948022e-07
0.001448118227674533,4.0108440046448493e-07
0.0016070528182616384,4.20055358102461e-07
0.0017834308769319094,4.430532581757997e-07
0.0019791668678535573,4.7487462992456195e-07
0.002196385372416547,5.141852465429149e-07
0.002437444150122222,5.675550111261931e-07
0.002704959730463137,6.380213511735504e-07
0.0030018358135755923,9.259267317847956e-07
0.003331294787934677,8.315814402556253e-06
0.0036969127071950323,0.00016298873228554934
0.00410265810582719,0.0020497268283144352
0.004552935074866948,0.015198339511419884
0.00505263106533568,0.06737843214663672
0.005607169938205458,0.1885694876134457
0.006222570836730231,0.3769206047178038
0.006905513520162331,0.6262400958746074
0.007663410868007463,0.9044382382887263
0.008504489341802686,1.1325200583173476
0.009437878277775391,1.2846217537466065
0.010473708979594508,1.3075527743641362
0.011623224686798541,1.1895274018788928
0.01289890261253308,0.9880015800553518
0.014314589375234785,0.7222693067405223
0.015885651294280528,0.46200244195021467
0.01762914118095948,0.248954763217306
0.01956398343517065,0.09737879270689803
0.021711179456945052,0.02425928275176796
0.02409403560239527,0.003626549838036839
0.026738416158399492,0.00032043501015297865
0.029673024081888724,1.824194869956093e-05
0.032929712550971546,2.1939529626358815e-06
0.036543830709572546,1.5713090787994036e-06
0.040554607358408275,1.4617914743010956e-06
0.04500557675700498,1.3842677617313825e-06
0.0499450511585514,1.338418059629821e-06
0.05542664520663107,1.3122672709329693e-06
0.06150985788580504,1.3120524517884637e-06
0.06826071834272393,1.3280150100515441e-06
0.0757525025877192,1.365611613054179e-06
0.08406652885618333,1.4198620614429646e-06
0.09329304026284696,1.4937100915184158e-06
0.10353218432956637,1.5883114872807893e-06
0.11489510001873086,1.7021903560884249e-06
0.1275051240713013,1.8445721054290656e-06
0.1414991297434576,2.008903388930894e-06
0.15702901247293774,2.2141159528479765e-06
0.17426333860096507,2.4506089622345176e-06
0.19338917504552322,2.7474204720178723e-06
0.21461411978584058,3.0977273983777535e-06
0.23816855519761607,3.5402637541968875e-06
0.2643081486974108,4.08091384484063e-06
0.29331662783900486,4.768870448099586e-06
0.32550885998350565,5.637807580143887e-06
0.36123426997094304,6.751159373341369e-06
0.40088063288984643,8.194173416418058e-06
0.4448782831127585,1.0050736367589484e-05
0.4937047852839004,1.2495308269930051e-05
0.5478901179593945,1.5634808909756384e-05
0.6080224261649427,1.9784956158908372e-05
0.67475440531107,2.5061863031297813e-05
0.748810385759003,3.196715805572461e-05
0.8309941949353403,4.059523124297566e-05
0.9221978823334341,5.158573840012145e-05
1.0234114021054528,6.501912107976063e-05
1.135733358343105,8.135885268468106e-05
1.2603829296797273,0.00010079949916716104
1.3987131026472386,0.00012291618811720743
1.552225357427048,0.00014819676430346764
1.7225859653987874,0.00017450846119868352
1.9116440753857036,0.00020256834077449679
2.121451784910632,0.00022880408654308903
2.35428641432242,0.0002534327587905283
2.612675225563332,0.00027401369620600716
2.8994228538828812,0.0002892419277613405
3.2176417502507353,0.0003005047946993084
3.5707859649004625,0.00030543557997287664
3.9626886387014784,0.00030828706372939456
4.397603609302721,0.0003073146551259034
4.880251583654434,0.00030662897668616
5.415871378079476,0.0003057541777551393
6.010276782070388,0.0003071401324955052
6.669919663030129,0.00031123985865688566
7.401959996915652,0.0003188708346005397
8.214343584919439,0.00033117802338055087
9.115888299750837,0.0003476320313897468
10.11637979766207,0.00037013772244554613
11.226677735108158,0.0003966754178406025
12.458833642950081,0.00042881882754761027
13.826221737646593,0.00045383402461620026
15.343684089300131,0.0004401937491102253
17.02769172225898,0.0003334207211005983
18.896523396912116,0.0001673501127978134
20.970464013232306,5.112268679362957e-05
23.27202478960412,9.212898643271209e-06
25.826187606826746,9.696518033677726e-07
28.66067616948256,5.9419910232836026e-08
31.80625692794119,2.1180602252844088e-09
35.297073027306574,4.390479458156635e-11
39.17101490809261,5.291951788247518e-13
43.47013158125035,3.708847024588229e-15
48.241087041653735,1.511394043115522e-17
53.535666774107185,3.5812217998284815e-20
59.411339849650396,4.934000104771526e-23
65.93188271333541,3.952586823188579e-26
73.16807143427206,1.84110256901524e-29
81.19844993184009,4.9864198474444665e-33
90.11018251665037,7.85260932615139e-37
100.0,7.190406281669803e-41
