tau,gamma
1e-07,0.00029414593144846653
1.1097524964120721e-07,0.00043497466845526415
1.2315506032928263e-07,0.0005963170616668435
1.3667163564620074e-07,0.0007599789225462459
1.5167168884709241e-07,0.0009035665694983223
1.6831803533309585e-07,0.0010066690009342852
1.867913599020781e-07,0.0010568741280886603
2.0729217795953698e-07,0.0010529777870313304
2.300430119772917e-07,0.0010041663581399232
2.5529080682395163e-07,0.0009259832752720528
2.833096101839324e-07,0.0008352298498824828
3.1440354715915e-07,0.0007459304301473363
3.489101213406774e-07,0.000667436412661159
3.872038781812557e-07,0.0006045221298704474
4.2970047043208437e-07,0.0005586246637248121
4.768611697714474e-07,0.0005293369038093708
5.291978735958437e-07,0.0005156042802364591
5.872786613189477e-07,0.0005164568048709155
6.517339604882421e-07,0.0005313411610755068
7.232633896483533e-07,0.0005601881942441331
8.026433522257174e-07,0.0006033281118517596
8.907354638610439e-07,0.0006613179176826386
9.884959046625586e-07,0.0007347100857236133
1.096985797892384e-06,0.0008237778320200519
1.217382727739662e-06,0.0009282168129625473
1.3509935211980278e-06,0.001046857862275116
1.499268432786047e-06,0.001177441885371037
1.6638168860761274e-06,0.0013165176389264529
1.8464249428955464e-06,0.0014595183658299119
2.049074689815846e-06,0.0016010501625459421
2.2739657523579273e-06,0.0017353855850693659
2.523539170434766e-06,0.0018571094004452774
2.800503894183631e-06,0.0019618236990060108
3.107866187782014e-06,0.0020468013305728373
3.4489622604057595e-06,0.0021114890461956934
3.827494478516315e-06,0.0021578047697875923
4.247571552536894e-06,0.0021902377437761247
4.713753134116729e-06,0.0022158315015630525
5.2310993080562585e-06,0.0022441948042663034
5.805225516094895e-06,0.002287738194961036
6.44236350872137e-06,0.00236237111924364
7.149428986597577e-06,0.0024889035254339288
7.934096665797492e-06,0.0026953239538735174
8.804883581643465e-06,0.0030198519458802782
9.771241535346501e-06,0.0035140111809785148
1.0843659686896109e-05,0.004243845429992117
1.2033778407775906e-05,0.005286067832197798
1.3354515629298974e-05,0.006715307605119845
1.48202070579886e-05,0.008580152403671186
1.6446761779946626e-05,0.010870479668155856
1.8251834943190462e-05,0.013485850619137492
2.0255019392306664e-05,0.016220875944351454
2.2478058335487252e-05,0.018783123752653282
2.4945081352303165e-05,0.020848942711185883
2.7682866303920665e-05,0.02214502605338334
3.072112998861759e-05,0.02252760186842683
3.409285069746814e-05,0.02202740451146838
3.783462617131933e-05,0.02084167487705001
4.1987070844439056e-05,0.019278412634242917
4.659525668664687e-05,0.017679425258626737
5.170920242896755e-05,0.01635527540545648
5.7384416483024044e-05,0.015554539374189925
6.368249944718586e-05,0.015469909828181907
7.067181273927492e-05,0.016266556594564874
7.842822061337681e-05,0.01811149930332209
8.703591361485166e-05,0.021186723864326105
9.658832241158708e-05,0.025678731730527326
0.00010718913192051276,0.03174820252633599
0.00011895340673703195,0.03949240189684099
0.0001320088400831418,0.04891789920423685
0.00014649713983072864,0.05994007240759944
0.0001625755666443795,0.07241747172178557
0.00018041864093920718,0.08621488090173272
0.00020022003718155845,0.10127418675108442
0.0002221946860939524,0.11766433090649348
0.0002465811075822604,0.1355860411324943
0.0002736439997074672,0.15532326709991293
0.00030367711180354605,0.17715420801174367
0.00033700643292719284,0.2012500948203888
0.0003739937302478798,0.22759156978809658
0.0004150404757850477,0.2559203175669128
0.00046059220411451084,0.28572577496289786
0.0005111433483440171,0.31625519356052106
0.0005672426068491978,0.3465374321995939
0.0006294988990221888,0.3754234274384036
0.0006985879746785249,0.40165706743116114
0.0007752597488629464,0.42398715327681386
0.000860346441668451,0.441312924972985
0.0009547716114208065,0.4528340074030004
0.001059560179277617,0.4581666297162345
0.0011758495540521582,0.45739876543067803
0.0013049019780144017,0.45107979190733954
0.001448118227674533,0.4401595406194923
0.0016070528182616384,0.4258963972325281
0.0017834308769319094,0.40974674589541055
0.0019791668678535573,0.39324027565423697
0.002196385372416547,0.377847014010694
0.002437444150122222,0.3648509132912554
0.002704959730463137,0.35525063483110403
0.0030018358135755923,0.34970166166841943
0.003331294787934677,0.3484973807518935
0.0036969127071950323,0.3515736050549821
0.00410265810582719,0.3585233148615951
0.004552935074866948,0.36862404314944425
0.00505263106533568,0.38089239006345615
0.005607169938205458,0.39417281594902076
0.006222570836730231,0.40724492814557256
0.006905513520162331,0.41891835545443956
0.007663410868007463,0.42809639472606914
0.008504489341802686,0.43381991819210075
0.009437878277775391,0.43531937939737025
0.010473708979594508,0.43208465655377504
0.011623224686798541,0.4239272989107813
0.01289890261253308,0.41099620718160745
0.014314589375234785,0.39373248677260403
0.015885651294280528,0.3727874685139836
0.01762914118095948,0.34894211972743255
0.01956398343517065,0.3230471016488225
0.021711179456945052,0.2959755824301999
0.02409403560239527,0.2685728713404671
0.026738416158399492,0.24159944839457756
0.029673024081888724,0.2156781832050356
0.032929712550971546,0.1912584775426191
0.036543830709572546,0.1686030532878209
0.040554607358408275,0.14779780143613605
0.04500557675700498,0.12878470537414466
0.0499450511585514,0.1114164691572246
0.05542664520663107,0.09552422379413292
0.06150985788580504,0.08098023098910229
0.06826071834272393,0.06773479302277342
0.0757525025877192,0.0558154718826008
0.08406652885618333,0.045292944596065254
0.09329304026284696,0.03623156105683946
0.10353218432956637,0.028646416607035725
0.11489510001873086,0.022482159127647665
0.1275051240713013,0.01761739931545114
0.1414991297434576,0.013889062591298709
0.15702901247293774,0.011126674628552975
0.17426333860096507,0.009186605422215754
0.19338917504552322,0.007977733019359296
0.21461411978584058,0.007470688244226709
0.23816855519761607,0.0076835018792015715
0.2643081486974108,0.008640278529733817
0.29331662783900486,0.01030923805933248
0.32550885998350565,0.012540507538151186
0.36123426997094304,0.015034663819576128
0.40088063288984643,0.017369721917883815
0.4448782831127585,0.019092034749646353
0.4937047852839004,0.019843274966006044
0.5478901179593945,0.01947070441221589
0.6080224261649427,0.01806987312790381
0.67475440531107,0.015940253006362003
0.748810385759003,0.013477074077549908
0.8309941949353403,0.011050404909984471
0.9221978823334341,0.00892009635628562
1.0234114021054528,0.007208641271922548
1.135733358343105,0.005923337578928846
1.2603829296797273,0.005002014294378765
1.3987131026472386,0.004357389509876118
1.552225357427048,0.003906575503296433
1.7225859653987874,0.003584180726617766
1.9116440753857036,0.0033440570176918286
2.121451784910632,0.0031557753318527276
2.35428641432242,0.0030000181368869255
2.612675225563332,0.002864780596204916
2.8994228538828812,0.0027427663097585506
3.2176417502507353,0.002629732529577477
3.5707859649004625,0.0025234357959915852
3.9626886387014784,0.0024229210211853835
4.397603609302721,0.002328007223640776
4.880251583654434,0.0022388931155212584
5.415871378079476,0.002155833124771615
6.010276782070388,0.0020788337122237075
6.669919663030129,0.00200731134667772
7.401959996915652,0.0019396654762673991
8.214343584919439,0.0018727862737164306
9.115888299750837,0.0018016555443016104
10.11637979766207,0.0017193693165526809
11.226677735108158,0.0016179849742280219
12.458833642950081,0.001490406533997193
13.826221737646593,0.0013330067102257006
15.343684089300131,0.0011480442123114494
17.02769172225898,0.000944614292715319
18.896523396912116,0.0007372653569913575
20.970464013232306,0.0005424782960209598
23.27202478960412,0.0003743436274257182
25.826187606826746,0.00024122572995755344
28.66067616948256,0.00014465164954736835
31.80625692794119,8.049006656934023e-05
35.297073027306574,4.146597834896575e-05
39.17101490809261,1.9741370871995332e-05
43.47013158125035,8.672788053198419e-06
48.241087041653735,3.5117258525874965e-06
53.535666774107185,1.309322138859511e-06
59.411339849650396,4.491582253506107e-07
65.93188271333541,1.4167904196535146e-07
73.16807143427206,4.107171328527643e-08
81.19844993184009,1.0937792725351537e-08
90.11018251665037,2.6749655651506746e-09
100.0,6.006026970226776e-10
