tau,gamma
1e-07,1.3726489211537827e-05
1.1097524964120721e-07,0.000118257990223174
1.2315506032928263e-07,0.0005991922381695656
1.3667163564620074e-07,0.0018305550128555426
1.5167168884709241e-07,0.003616318968503537
1.6831803533309585e-07,0.0053395267015751745
1.867913599020781e-07,0.006870899492073039
2.0729217795953698e-07,0.00811127438927219
2.300430119772917e-07,0.009047191067058653
2.5529080682395163e-07,0.009698584659215895
2.833096101839324e-07,0.009952067099239901
3.1440354715915e-07,0.00993292256102389
3.489101213406774e-07,0.009529108720159885
3.872038781812557e-07,0.008880115733126425
4.2970047043208437e-07,0.007975934189859563
4.768611697714474e-07,0.006890944690611182
5.291978735958437e-07,0.005743823960104462
5.872786613189477e-07,0.004546513135627291
6.517339604882421e-07,0.0034605145059567943
7.232633896483533e-07,0.002491264863320617
8.026433522257174e-07,0.001715890987139345
8.907354638610439e-07,0.0011469566123031149
9.884959046625586e-07,0.0007526600018687979
1.096985797892384e-06,0.0005101733934968083
1.217382727739662e-06,0.0003693808838967985
1.3509935211980278e-06,0.0002922313977180531
1.499268432786047e-06,0.00025153220367070834
1.6638168860761274e-06,0.00022855941276220428
1.8464249428955464e-06,0.00021305746796488882
2.049074689815846e-06,0.00020167789346396176
2.2739657523579273e-06,0.00019087657598132517
2.523539170434766e-06,0.00018186033279001595
2.800503894183631e-06,0.00017288680879396073
3.107866187782014e-06,0.00016539566758891244
3.4489622604057595e-06,0.00015820864733270045
3.827494478516315e-06,0.00015189753461431705
4.247571552536894e-06,0.00014548420383147823
4.713753134116729e-06,0.00013810846495428657
5.2310993080562585e-06,0.00012850230133071728
5.805225516094895e-06,0.00011538160123591396
6.44236350872137e-06,0.00010269222954932058
7.149428986597577e-06,0.00010106946717061551
7.934096665797492e-06,0.00015128220002778875
8.804883581643465e-06,0.00033241400680539913
9.771241535346501e-06,0.0007896965154982426
1.0843659686896109e-05,0.001751881905526446
1.2033778407775906e-05,0.003326397830735738
1.3354515629298974e-05,0.005550333510062029
1.48202070579886e-05,0.008510513615633635
1.6446761779946626e-05,0.011965356300792157
1.8251834943190462e-05,0.015921225005416324
2.0255019392306664e-05,0.020120351059947965
2.2478058335487252e-05,0.02433776540296997
2.4945081352303165e-05,0.02853921922050506
2.7682866303920665e-05,0.03222758025654631
3.072112998861759e-05,0.035601645677539755
3.409285069746814e-05,0.0381029592915219
3.783462617131933e-05,0.03993477812280897
4.1987070844439056e-05,0.0408140793274943
4.659525668664687e-05,0.04070352297196978
5.170920242896755e-05,0.03978636528355635
5.7384416483024044e-05,0.03776756108522075
6.368249944718586e-05,0.03517552183687386
7.067181273927492e-05,0.03170078314769191
7.842822061337681e-05,0.02788677154676219
8.703591361485166e-05,0.02369568203361145
9.658832241158708e-05,0.019427143175877203
0.00010718913192051276,0.015380520562769081
0.00011895340673703195,0.011618119112831546
0.0001320088400831418,0.008564315797179239
0.00014649713983072864,0.006245025995256153
0.0001625755666443795,0.0049246881615274095
0.00018041864093920718,0.00473777317097781
0.00020022003718155845,0.005709100134634889
0.0002221946860939524,0.00800138615113016
0.0002465811075822604,0.011562897048920035
0.0002736439997074672,0.01635526097262122
0.00030367711180354605,0.022470581075422845
0.00033700643292719284,0.02955507955969259
0.0003739937302478798,0.037869843311434434
0.0004150404757850477,0.04693759433772624
0.00046059220411451084,0.056941305286804085
0.0005111433483440171,0.06767129291384864
0.0005672426068491978,0.07890120571871537
0.0006294988990221888,0.0909964929999215
0.0006985879746785249,0.10317928224600773
0.0007752597488629464,0.11637409102004193
0.000860346441668451,0.1294453128106658
0.0009547716114208065,0.1434922127919193
0.001059560179277617,0.15749975854117954
0.0011758495540521582,0.172137105093217
0.0013049019780144017,0.18707555840382195
0.001448118227674533,0.2019871482743398
0.0016070528182616384,0.21761670254404206
0.0017834308769319094,0.23239911765835922
0.0019791668678535573,0.2481022072770048
0.002196385372416547,0.2622459722549868
0.002437444150122222,0.2770437411746299
0.002704959730463137,0.2900205276006603
0.0030018358135755923,0.30265171197809737
0.003331294787934677,0.31334207880813575
0.0036969127071950323,0.3218701579780842
0.00410265810582719,0.32870819068179746
0.004552935074866948,0.3321103611790682
0.00505263106533568,0.33583437130423277
0.005607169938205458,0.3371597498027598
0.006222570836730231,0.3364882246212948
0.006905513520162331,0.32744418654561325
0.007663410868007463,0.31435308633243225
0.008504489341802686,0.2996104237961561
0.009437878277775391,0.28413911357409877
0.010473708979594508,0.267183422323943
0.011623224686798541,0.2468182691706783
0.01289890261253308,0.22591387488529
0.014314589375234785,0.20271404764077613
0.015885651294280528,0.17998962500440235
0.01762914118095948,0.156303183623617
0.01956398343517065,0.13336953280385896
0.021711179456945052,0.1111025987276444
0.02409403560239527,0.08985874822852068
0.026738416158399492,0.07064489494607232
0.029673024081888724,0.05299058373075359
0.032929712550971546,0.038092367866138954
0.036543830709572546,0.02547149818894566
0.040554607358408275,0.01567169903136389
0.04500557675700498,0.008578354733159198
0.0499450511585514,0.0038880389872854616
0.05542664520663107,0.0014838661976643017
0.06150985788580504,0.0004819405041951302
0.06826071834272393,0.00012907739420602398
0.0757525025877192,4.4829770399918177e-05
0.08406652885618333,3.88281056205617e-05
0.09329304026284696,4.5928351576948406e-05
0.10353218432956637,5.1828362942993184e-05
0.11489510001873086,5.4511028685563955e-05
0.1275051240713013,5.580347746284259e-05
0.1414991297434576,5.634150811242785e-05
0.15702901247293774,5.703084632126968e-05
0.17426333860096507,5.750135508216755e-05
0.19338917504552322,5.822500514429892e-05
0.21461411978584058,5.881310655606758e-05
0.23816855519761607,5.9557855258329644e-05
0.2643081486974108,6.043966315173628e-05
0.29331662783900486,6.148628019554868e-05
0.32550885998350565,6.295821047998776e-05
0.36123426997094304,6.45884935455617e-05
0.40088063288984643,6.68126441299487e-05
0.4448782831127585,6.91010772267273e-05
0.4937047852839004,7.197877631727435e-05
0.5478901179593945,7.47504914115973e-05
0.6080224261649427,7.791166981686939e-05
0.67475440531107,8.084191667621916e-05
0.748810385759003,8.381759954146303e-05
0.8309941949353403,8.66502165968346e-05
0.9221978823334341,8.922685749147609e-05
1.0234114021054528,9.198321949911564e-05
1.135733358343105,9.443790984269664e-05
1.2603829296797273,9.748738293220156e-05
1.3987131026472386,0.00010047305731410646
1.552225357427048,0.00010441890907184165
1.7225859653987874,0.00010869386509465975
1.9116440753857036,0.0001141728435324172
2.121451784910632,0.00012042486578052363
2.35428641432242,0.00012796577684045274
2.612675225563332,0.00013673485682614534
2.8994228538828812,0.00014666307202564055
3.2176417502507353,0.00015818905549283256
3.5707859649004625,0.0001704377177657611
3.9626886387014784,0.00018450612985212943
4.397603609302721,0.00019888140894521022
4.880251583654434,0.0002158758900423526
5.415871378079476,0.00023505277519236383
6.010276782070388,0.00026070539847025735
6.669919663030129,0.0002964346504171696
7.401959996915652,0.0003479138659850496
8.214343584919439,0.00041893762089812716
9.115888299750837,0.0005120863852356257
10.11637979766207,0.0006181800105144773
11.226677735108158,0.000722589267293398
12.458833642950081,0.0008059555566411211
13.826221737646593,0.0008233222349677278
15.343684089300131,0.0007518741656586531
17.02769172225898,0.0005480121335065075
18.896523396912116,0.0002708297544556637
20.970464013232306,8.230939601895306e-05
23.27202478960412,1.4809403326534238e-05
25.826187606826746,1.5579221027464102e-06
28.66067616948256,9.545485450536972e-08
31.80625692794119,3.402397494351597e-09
35.297073027306574,7.052658884311225e-11
39.17101490809261,8.500707141437929e-13
43.47013158125035,5.9576854177989755e-15
48.241087041653735,2.4278183720559764e-17
53.535666774107185,5.752672611869489e-20
59.411339849650396,7.925699079479747e-23
65.93188271333541,6.349212153551335e-26
73.16807143427206,2.9574431364988455e-29
81.19844993184009,8.009903081022459e-33
90.11018251665037,1.2613987899652923e-36
100.0,1.1550262346679003e-40
