tau,gamma
0.006737946999085466,7.66342522811253e-05
0.007103013268856361,0.0002025813372946954
0.007487859062173905,0.00046595502164314327
0.007893556046250663,0.0009325567126674212
0.00832123395191293,0.001624154870856971
0.008772083719524362,0.0024618606733479297
0.009247360815357767,0.0032486210896467663
0.009748388727650104,0.003733768068281097
0.010276562652075886,0.0037411225928063187
0.010833353376901932,0.0032733564032114792
0.011420311378642276,0.002508923432427677
0.012039071139618275,0.0016946087265829182
0.012691355699446872,0.0010202437115130025
0.013378981453131423,0.0005597617067967011
0.014103863209116094,0.0002918020829590936
0.01486801952138893,0.00015493922043679017
0.015673578310481672,9.11255680259413e-05
0.01652278278901886,6.22288152832036e-05
0.017417997708317062,4.8402430963225056e-05
0.0183617159434288,4.093388891960395e-05
0.019356565434968317,3.634251173525491e-05
0.02040531650704995,3.3201137506211254e-05
0.021510889581717107,3.0896531464079814e-05
0.022676363311343803,2.9192847089184453e-05
0.023904983151655027,2.797171242676301e-05
0.025200170399238803,2.7101649611441628e-05
0.02656553171871635,2.6484626526444483e-05
0.028004869186100477,2.611671419126087e-05
0.029522190876309574,2.6020429664140833e-05
0.031121722024319735,2.6160572985091693e-05
0.03280791679103535,2.649067644481597e-05
0.03458547066664211,2.703929729877468e-05
0.0364593335459814,2.7873608146712543e-05
0.03843472351235704,2.9005756999882532e-05
0.0405171413681574,3.0418963676685335e-05
0.042712385952755796,3.217371453069047e-05
0.04502657029034464,3.440479253059604e-05
0.04746613861266957,3.724688921286786e-05
0.05003788430406602,4.103422566165281e-05
0.05274896881876944,4.7398700082660886e-05
0.055606941623177565,6.33349949791199e-05
0.05861976121859689,0.00011527552195322014
0.061795817303015234,0.00029058787424388516
0.06514395413361329,0.0008374660893163526
0.06867349515507169,0.002361009518474963
0.07239426896225575,0.006147296101006757
0.07631663666957506,0.014669787288816537
0.0804515207632321,0.032479462584568845
0.08481043551670452,0.06787490799900364
0.08940551905415753,0.13532025553293595
0.09424956715107226,0.2565755976316103
0.0993560688662139,0.45578835571316634
0.10473924410416283,0.7448891579652199
0.11041408321300714,1.1047461288471818
0.11639638872746379,1.4788872450659423
0.12270281937366895,1.7937787113794135
0.1293509364581752,1.9959247007650733
0.13635925277033487,2.073947047375373
0.1437472841342458,2.0449815840561056
0.1515356037538138,1.9233703790807737
0.15974589950226564,1.7092376526895199
0.1684010343156449,1.408192836075082
0.17752510985846495,1.0543756898441468
0.1871435336388085,0.7065234094242641
0.19728308975976602,0.41970751692506836
0.20797201350423158,0.22014262286968328
0.2192400699607512,0.10205693783956794
0.23111863690937004,0.042108441596328275
0.24364079219828674,0.015711118238349614
0.2568414058546314,0.005476791460797541
0.2707572371858648,0.0019065108532405407
0.28542703714219186,0.0007516821199335884
0.3008916562250374,0.0003922233362652553
0.3171941582420718,0.0002795177527155947
0.3343799402255558,0.00024136824926048286
0.3524968588479384,0.00022630498994612625
0.37159536368673307,0.00021955303850518598
0.39172863770976835,0.00021662114005762176
0.4129527453720206,0.00021590207804490446
0.4353267887364277,0.00021716735885916503
0.4589130720534265,0.00022074106952907688
0.483777275257516,0.00022658059980599124
0.5099886368639759,0.00023436654812474276
0.5376201467750433,0.0002443179199248725
0.5667487495324537,0.0002571822478312169
0.5974555585823343,0.0002733696192243507
0.6298260821491041,0.00029287728997467376
0.663950461347367,0.00031630686597722437
0.6999237211948623,0.00034521593794530086
0.7378460352254496,0.00038123878391346875
0.7778230044390037,0.0004260771557508934
0.8199659513649863,0.00048393151278461083
0.8643922300585688,0.0005659790546324436
0.9112255528925503,0.0007004281253058078
0.9605963350550639,0.0009632218875663335
1.0126420577123871,0.0015553712962061352
1.0675076508481538,0.002947637322043187
1.1253458968450323,0.0060649811795385885
1.1863178559327128,0.012370430020505033
1.2505933146869508,0.023602089463410695
1.3183512588285655,0.04104113634709527
1.3897803716389856,0.06468038855299423
1.4650795593802837,0.09310805756756939
1.5444585051827886,0.12448055944303106
1.6281382529426836,0.15761295602273367
1.7163518228555608,0.19160602233820442
1.8093448602999653,0.2240602205215722
1.9073763198778606,0.25027270581729244
2.010719186516862,0.26534022905988647
2.1196612356422295,0.26749698530656335
2.2345058345354687,0.25893798522972983
2.355572787111065,0.2431903349756361
2.483199224463749,0.22232538954125317
2.6177405436661707,0.19715325238698017
2.7595713974312646,0.16940010300302505
2.9090867373951204,0.14261346613413245
3.0667029139255924,0.12077664755779939
3.2328588355192625,0.10656308920290464
3.4080171910152477,0.10103290425803911
3.592665738029329,0.1045439228773858
3.7873186611962937,0.11769647164521863
3.9925180040026884,0.1415348500933621
4.208835178197177,0.17672170723315533
4.436872554981753,0.2220932450224532
4.67726514241468,0.2741382682494689
4.9306823536961755,0.3287023433430797
5.197829871261,0.38348126463870713
5.479451611868721,0.43797731654161626
5.776331798163825,0.4904879535037881
6.089297142474323,0.5363608134875888
6.4192191489299155,0.5707532331779542
6.767016540310378,0.5925950650133452
7.133657816382208,0.604025429332326
7.520163950847523,0.6059207008868088
7.927611234415363,0.5961089583650533
8.357134271912493,0.5729595743017964
8.809929141779493,0.5389359050406635
9.287256726750387,0.4988714299698567
9.790446224990665,0.4556939814483894
10.320898851470968,0.40968975289765563
10.88009173988351,0.36162855373976277
11.469582055966955,0.3146743020597626
12.091011333693753,0.2726304757583936
12.746110046394861,0.23750624698715814
13.436702425551045,0.20948871306029918
14.164711540669245,0.18843982796910494
14.932164654389897,0.17456894637951173
15.741198867737497,0.16801531940869266
16.594067071234324,0.16845132137612048
17.493144218449313,0.17494707939605098
18.440933939451924,0.18579565532070907
19.440075512587047,0.19874233031694938
20.4933512139851,0.21193642525654613
21.603694065273455,0.22449510435579778
22.774196001063633,0.23557980756516722
24.008116478958158,0.2431376191090808
25.308891556053304,0.2444641622403745
26.680143457212324,0.23829658314506025
28.125690661753833,0.22566709093784745
29.649558536643646,0.20827556644197737
31.255990545799495,0.18664341451897845
32.94946006672302,0.16057539210401453
34.7346828473647,0.131142638819834
36.61663013790941,0.10138524759461331
38.600542534050476,0.07480443544252609
40.69194457030146,0.05344906785667821
42.89666010398265,0.03745245260184358
45.22082853272161,0.025901069525811664
47.67092189062879,0.017775086598994936
50.253762870754336,0.012270199153604578
52.97654382401316,0.00872517441137719
55.84684678748435,0.006551806300711132
58.872664597856144,0.005258243481401794
62.062423148810836,0.004481869845301537
65.4250048543295,0.003989757307340985
68.96977338325308,0.0036558096495223997
72.70659973397773,0.003422345472431152
76.64588972189405,0.0032591628101201055
80.79861295611386,0.003143372046360807
85.17633338617287,0.003062182538898208
89.79124150377488,0.0030144749769789383
94.65618828924686,0.0029996406138293333
99.78472099723308,0.0030106106116093824
105.19112088128277,0.003042103527733806
110.8904429623799,0.003097725465304734
116.89855795215551,0.003181842681632042
123.23219644752831,0.0032905934812005374
129.90899551983924,0.0034189737892760742
136.94754782821292,0.003571624906780576
144.36745339391442,0.003756863802127404
152.18937417987405,0.003973563565463869
160.43509162736297,0.004215295279968756
169.12756731004515,0.004485971107564621
178.29100687430494,0.004798302998675517
187.95092744389908,0.0051554072419118715
198.13422867663894,0.00554850285078079
208.86926767096958,0.0059779057870011755
220.18593793103105,0.006460716529494968
232.11575261010105,0.007007886177045993
244.69193226422044,0.007609360481772564
