tau,gamma
1e-07,1.4338094684923535e-06
1.1097524964120721e-07,1.2319712102427462e-05
1.2315506032928263e-07,6.187814432132607e-05
1.3667163564620074e-07,0.00018387525001846718
1.5167168884709241e-07,0.0003354367434912776
1.6831803533309585e-07,0.0004140518390006233
1.867913599020781e-07,0.00041152938539721517
2.0729217795953698e-07,0.00038270153703651356
2.300430119772917e-07,0.00035320278552712224
2.5529080682395163e-07,0.0003310201826910425
2.833096101839324e-07,0.00031321173832012474
3.1440354715915e-07,0.00030117880239439727
3.489101213406774e-07,0.0002916320337703808
3.872038781812557e-07,0.00028550751870121886
4.2970047043208437e-07,0.0002799168535750653
4.768611697714474e-07,0.00027486786248551284
5.291978735958437e-07,0.00026842857597641015
5.872786613189477e-07,0.0002592704023089413
6.517339604882421e-07,0.00024776436550615874
7.232633896483533e-07,0.00023156980888433797
8.026433522257174e-07,0.0002136956297580266
8.907354638610439e-07,0.0001924309285688165
9.884959046625586e-07,0.00017108277535937092
1.096985797892384e-06,0.00014969878092246534
1.217382727739662e-06,0.00012974415570330333
1.3509935211980278e-06,0.00011208495328649707
1.499268432786047e-06,9.655523776672177e-05
1.6638168860761274e-06,8.379697276889234e-05
1.8464249428955464e-06,7.300589037168389e-05
2.049074689815846e-06,6.450321391941872e-05
2.2739657523579273e-06,5.7458553593893096e-05
2.523539170434766e-06,5.20494271075193e-05
2.800503894183631e-06,4.763966698630984e-05
3.107866187782014e-06,4.4340198366388e-05
3.4489622604057595e-06,4.174717971743322e-05
3.827494478516315e-06,3.990406708866457e-05
4.247571552536894e-06,3.862460191265716e-05
4.713753134116729e-06,3.7868443369894534e-05
5.2310993080562585e-06,3.76448560902329e-05
5.805225516094895e-06,3.7825663608258884e-05
6.44236350872137e-06,3.859044540741964e-05
7.149428986597577e-06,3.9738822923611786e-05
7.934096665797492e-06,4.1586693975575835e-05
8.804883581643465e-06,4.389084604572915e-05
9.771241535346501e-06,4.705739446201163e-05
1.0843659686896109e-05,5.082899679166524e-05
1.2033778407775906e-05,5.5632954024474206e-05
1.3354515629298974e-05,6.1220768480779e-05
1.48202070579886e-05,6.791256861414631e-05
1.6446761779946626e-05,7.552023946127817e-05
1.8251834943190462e-05,8.402111421451557e-05
2.0255019392306664e-05,9.34410399899898e-05
2.2478058335487252e-05,0.00010312142183061337
2.4945081352303165e-05,0.00011352705700643209
2.7682866303920665e-05,0.00012331032543427887
3.072112998861759e-05,0.00013336185467475856
3.409285069746814e-05,0.00014215418672289574
3.783462617131933e-05,0.00015050881860475475
4.1987070844439056e-05,0.00015755199975155384
4.659525668664687e-05,0.00016339175964695185
5.170920242896755e-05,0.00016833453365472305
5.7384416483024044e-05,0.0001715371494471517
6.368249944718586e-05,0.00017441581686341058
7.067181273927492e-05,0.00017555433546396392
7.842822061337681e-05,0.00017690047544759987
8.703591361485166e-05,0.0001772265520738865
9.658832241158708e-05,0.00017825830931909257
0.00010718913192051276,0.00017956455866230156
0.00011895340673703195,0.00018220978599880382
0.0001320088400831418,0.00018672438559121362
0.00014649713983072864,0.00019358766595730696
0.0001625755666443795,0.0002043020427738489
0.00018041864093920718,0.00021923229019178662
0.00020022003718155845,0.00024118493350536158
0.0002221946860939524,0.00027135845162393825
0.0002465811075822604,0.0003151660458044104
0.0002736439997074672,0.0003770281282616038
0.00030367711180354605,0.00046936356695711264
0.00033700643292719284,0.0006080782480707811
0.0003739937302478798,0.0008305927809522106
0.0004150404757850477,0.0012057762069503507
0.00046059220411451084,0.0019182231688290694
0.0005111433483440171,0.003571083940705894
0.0005672426068491978,0.008940684548202696
0.0006294988990221888,0.03240243140417559
0.0006985879746785249,0.14375963890512766
0.0007752597488629464,0.5634579513293501
0.000860346441668451,1.5216549384901483
0.0009547716114208065,2.5309110446700727
0.001059560179277617,2.495025662429592
0.0011758495540521582,1.44452668777465
0.0013049019780144017,0.49588054379960483
0.001448118227674533,0.10816206496845157
0.0016070528182616384,0.02218445898345441
0.0017834308769319094,0.009812873963219523
0.0019791668678535573,0.007596187235410032
0.002196385372416547,0.006772034904419005
0.002437444150122222,0.006505402506769869
0.002704959730463137,0.0065732073522970415
0.0030018358135755923,0.006912643032145069
0.003331294787934677,0.0074607580157220734
0.0036969127071950323,0.00824662710496133
0.00410265810582719,0.009330270117804889
0.004552935074866948,0.01088102077179861
0.00505263106533568,0.013678598120797109
0.005607169938205458,0.02170150303354893
0.006222570836730231,0.05260172462209786
0.006905513520162331,0.170482553270838
0.007663410868007463,0.5635330796914213
0.008504489341802686,1.4649057384695492
0.009437878277775391,2.5009087019456997
0.010473708979594508,2.5866680804648268
0.011623224686798541,1.576298159240027
0.01289890261253308,0.56166040023464
0.014314589375234785,0.11754674053613727
0.015885651294280528,0.015322062760599173
0.01762914118095948,0.0020359270780888686
0.01956398343517065,0.0008389174658624311
0.021711179456945052,0.0006141666496438161
0.02409403560239527,0.0004855816352731535
0.026738416158399492,0.0003994976193278326
0.029673024081888724,0.0003397751925682636
0.032929712550971546,0.0002995640333526065
0.036543830709572546,0.0002718682500615078
0.040554607358408275,0.0002550399073370013
0.04500557675700498,0.00024549936856410983
0.0499450511585514,0.00024374929931603886
0.05542664520663107,0.00024779765578876423
0.06150985788580504,0.0002592775461454736
0.06826071834272393,0.000277201878124352
0.0757525025877192,0.0003039470930353008
0.08406652885618333,0.000339168016592689
0.09329304026284696,0.00038511949501995136
0.10353218432956637,0.0004404332133106277
0.11489510001873086,0.0005028467888340002
0.1275051240713013,0.0005624873879701257
0.1414991297434576,0.0005966384620640171
0.15702901247293774,0.0005737569283776956
0.17426333860096507,0.000468326309840233
0.19338917504552322,0.0005175038618423727
0.21461411978584058,0.0020540280435090725
0.23816855519761607,0.010245746095587734
0.2643081486974108,0.03381268828531586
0.29331662783900486,0.06741254421944638
0.32550885998350565,0.081560515742743
0.36123426997094304,0.06370264645865151
0.40088063288984643,0.036623558904541435
0.4448782831127585,0.01735097507134796
0.4937047852839004,0.006563926855351
0.5478901179593945,0.0020267712747472624
0.6080224261649427,0.0008278589653421359
0.67475440531107,0.0006055943085744122
0.748810385759003,0.000512714232073543
0.8309941949353403,0.0004285601796181271
0.9221978823334341,0.0003492351738349509
1.0234114021054528,0.0002851710100800549
1.135733358343105,0.00023561504318986136
1.2603829296797273,0.0001994901939926478
1.3987131026472386,0.00017295287098291937
1.552225357427048,0.00015420816543688413
1.7225859653987874,0.00014093825786800897
1.9116440753857036,0.00013216206184012388
2.121451784910632,0.0001269246664896952
2.35428641432242,0.0001246789601291032
2.612675225563332,0.00012537877440761019
2.8994228538828812,0.00012863628107936153
3.2176417502507353,0.00013512636007233328
3.5707859649004625,0.00014455448234360185
3.9626886387014784,0.00015834088777010987
4.397603609302721,0.00017637130772929954
4.880251583654434,0.00020101619423678043
5.415871378079476,0.00023257276181168007
6.010276782070388,0.00027473180811517185
6.669919663030129,0.00032861098841681504
7.401959996915652,0.00039965194128863655
8.214343584919439,0.0004905539907558019
9.115888299750837,0.0006086601500657846
10.11637979766207,0.000760130916760816
11.226677735108158,0.000953213757500218
12.458833642950081,0.0011958324277608397
13.826221737646593,0.0014484463176699
15.343684089300131,0.0015519158424738171
17.02769172225898,0.0012342421289648043
18.896523396912116,0.0006306269864903261
20.970464013232306,0.00019375271254387915
23.27202478960412,3.4978048173933744e-05
25.826187606826746,3.683385743401057e-06
28.66067616948256,2.2575298450562133e-07
31.80625692794119,8.047499657203847e-09
35.297073027306574,1.6681726276265759e-10
39.17101490809261,2.0106979894457804e-12
43.47013158125035,1.4091929618752866e-14
48.241087041653735,5.742611360580213e-17
53.535666774107185,1.3607019018673107e-19
59.411339849650396,1.8746963878293168e-22
65.93188271333541,1.5018038436276016e-25
73.16807143427206,6.995355314248684e-29
81.19844993184009,1.8946135430443556e-32
90.11018251665037,2.9836356418501943e-36
100.0,2.732028498079549e-40
