tau,gamma
1e-07,-0.01012056055621297
1.1097524964120721e-07,-0.052029259820728806
1.2315506032928263e-07,-0.18182244136052145
1.3667163564620074e-07,-0.44505995672265003
1.5167168884709241e-07,-0.809054959286442
1.6831803533309585e-07,-1.19285957653442
1.867913599020781e-07,-1.5562586642921923
2.0729217795953698e-07,-1.896061370538196
2.300430119772917e-07,-2.2179721490721063
2.5529080682395163e-07,-2.519447368908823
2.833096101839324e-07,-2.7941374692997565
3.1440354715915e-07,-3.040851163154224
3.489101213406774e-07,-3.2540598642945353
3.872038781812557e-07,-3.4346536517462765
4.2970047043208437e-07,-3.5770034766442045
4.768611697714474e-07,-3.681573938950268
5.291978735958437e-07,-3.7452074914210147
5.872786613189477e-07,-3.7669089916986764
6.517339604882421e-07,-3.7471545895759206
7.232633896483533e-07,-3.6834805513028375
8.026433522257174e-07,-3.579783278165949
8.907354638610439e-07,-3.433760831442568
9.884959046625586e-07,-3.25123740773455
1.096985797892384e-06,-3.032398166253772
1.217382727739662e-06,-2.783219556178363
1.3509935211980278e-06,-2.508011456884403
1.499268432786047e-06,-2.212021616369549
1.6638168860761274e-06,-1.9035367398402903
1.8464249428955464e-06,-1.587584179959042
2.049074689815846e-06,-1.2744945257719453
2.2739657523579273e-06,-0.9702733213681871
2.523539170434766e-06,-0.684586912914034
2.800503894183631e-06,-0.42477433083592664
3.107866187782014e-06,-0.19758094278961943
3.4489622604057595e-06,-0.009935702945583005
3.827494478516315e-06,0.13551517421558867
4.247571552536894e-06,0.23573267878415335
4.713753134116729e-06,0.292330751659312
5.2310993080562585e-06,0.30876600605436444
5.805225516094895e-06,0.2904471726822813
6.44236350872137e-06,0.24621345844108794
7.149428986597577e-06,0.1842830475199676
7.934096665797492e-06,0.1148047687015941
8.804883581643465e-06,0.046756315125871716
9.771241535346501e-06,-0.012369955324219604
1.0843659686896109e-05,-0.05602852658070781
1.2033778407775906e-05,-0.0813720841408136
1.3354515629298974e-05,-0.08719450639563368
1.48202070579886e-05,-0.07516422908400051
1.6446761779946626e-05,-0.04947117293007399
1.8251834943190462e-05,-0.014833890472984031
2.0255019392306664e-05,0.02247069725998663
2.2478058335487252e-05,0.057016433995045405
2.4945081352303165e-05,0.08441965666304213
2.7682866303920665e-05,0.10132943854859537
3.072112998861759e-05,0.10712368210992398
3.409285069746814e-05,0.10233604527506425
3.783462617131933e-05,0.08936991539069324
4.1987070844439056e-05,0.07183422902653706
4.659525668664687e-05,0.053192656958522384
5.170920242896755e-05,0.03719772776415814
5.7384416483024044e-05,0.026427802596698538
6.368249944718586e-05,0.02230140217463487
7.067181273927492e-05,0.02523318143223507
7.842822061337681e-05,0.03410697229322513
8.703591361485166e-05,0.04719018079702243
9.658832241158708e-05,0.0623393156539489
0.00010718913192051276,0.07713761635846063
0.00011895340673703195,0.08995826459705161
0.0001320088400831418,0.09948524194018704
0.00014649713983072864,0.10530704655142496
0.0001625755666443795,0.10781466658254747
0.00018041864093920718,0.10768818579742574
0.00020022003718155845,0.10621212050963598
0.0002221946860939524,0.10446387003008706
0.0002465811075822604,0.10347196859245401
0.0002736439997074672,0.1038658330529864
0.00030367711180354605,0.1058810555157723
0.00033700643292719284,0.1092994732353772
0.0003739937302478798,0.11367442323526773
0.0004150404757850477,0.11824661080686341
0.00046059220411451084,0.12228605528685052
0.0005111433483440171,0.12516784061184613
0.0005672426068491978,0.1263476131238278
0.0006294988990221888,0.12583084947393336
0.0006985879746785249,0.12365687938591537
0.0007752597488629464,0.12046853663056714
0.000860346441668451,0.11695203986401374
0.0009547716114208065,0.11397278610105674
0.001059560179277617,0.1123731702354622
0.0011758495540521582,0.11268673662763251
0.0013049019780144017,0.11514275836163537
0.001448118227674533,0.11951620756750618
0.0016070528182616384,0.12512047765089843
0.0017834308769319094,0.13093060314670815
0.0019791668678535573,0.1358847496675085
0.002196385372416547,0.13874064011617498
0.002437444150122222,0.13890199282954793
0.002704959730463137,0.13586862868472438
0.0030018358135755923,0.12989007911193648
0.003331294787934677,0.1216545180971286
0.0036969127071950323,0.11203698233412424
0.00410265810582719,0.10233156968023599
0.004552935074866948,0.09350129561697441
0.00505263106533568,0.0864762481491944
0.005607169938205458,0.08175193468597827
0.006222570836730231,0.07945033842685974
0.006905513520162331,0.07933704576579147
0.007663410868007463,0.08091503401717035
0.008504489341802686,0.08341245667852332
0.009437878277775391,0.08609681841563034
0.010473708979594508,0.08813385586870137
0.011623224686798541,0.08887655099392851
0.01289890261253308,0.08790411553203406
0.014314589375234785,0.084941194120132
0.015885651294280528,0.08025293351382072
0.01762914118095948,0.0741902931664795
0.01956398343517065,0.06761084236993177
0.021711179456945052,0.06147171996240652
0.02409403560239527,0.056775042019048476
0.026738416158399492,0.054524131573590456
0.029673024081888724,0.05531126371773847
0.032929712550971546,0.059364956217744666
0.036543830709572546,0.06645571752828973
0.040554607358408275,0.0757247676796678
0.04500557675700498,0.08604940284176228
0.0499450511585514,0.09603595823908571
0.05542664520663107,0.1041649336236472
0.06150985788580504,0.1094403076404382
0.06826071834272393,0.11095391387435874
0.0757525025877192,0.10874421981163974
0.08406652885618333,0.10338208343139753
0.09329304026284696,0.09604593354635138
0.10353218432956637,0.08870050118368296
0.11489510001873086,0.08330618514415988
0.1275051240713013,0.08212918667487859
0.1414991297434576,0.08712582549172458
0.15702901247293774,0.09967138065361612
0.17426333860096507,0.1207125751818932
0.19338917504552322,0.15032536189273715
0.21461411978584058,0.18787578968535498
0.23816855519761607,0.2324717442240936
0.2643081486974108,0.2822879115179835
0.29331662783900486,0.3359318087494182
0.32550885998350565,0.39138954366710516
0.36123426997094304,0.44704380495283164
0.40088063288984643,0.5014839553217377
0.4448782831127585,0.5530176140109742
0.4937047852839004,0.6010109152609194
0.5478901179593945,0.6438873690792527
0.6080224261649427,0.6815022823008695
0.67475440531107,0.7127009597892773
0.748810385759003,0.7374175726778556
0.8309941949353403,0.7552310648980324
0.9221978823334341,0.7658986082223118
1.0234114021054528,0.7698346708734806
1.135733358343105,0.7666482335051973
1.2603829296797273,0.7573683177861998
1.3987131026472386,0.7417066271281623
1.552225357427048,0.7208650312969135
1.7225859653987874,0.6949423807062463
1.9116440753857036,0.6649334662280681
2.121451784910632,0.6314706366338865
2.35428641432242,0.5951530804446828
2.612675225563332,0.5570023544087795
2.8994228538828812,0.5172799369228237
3.2176417502507353,0.47711348851080143
3.5707859649004625,0.43663284565570465
3.9626886387014784,0.39677543844197466
4.397603609302721,0.35772027891902464
4.880251583654434,0.3200439139901893
5.415871378079476,0.28403525543093294
6.010276782070388,0.24990142784561223
6.669919663030129,0.2179732527128287
7.401959996915652,0.18819997145503975
8.214343584919439,0.16083443968001104
9.115888299750837,0.135694075059703
10.11637979766207,0.11284771003674154
11.226677735108158,0.09210503419397008
12.458833642950081,0.0733937365869988
13.826221737646593,0.05642091591957496
15.343684089300131,0.040619764402772485
17.02769172225898,0.025845265320093947
18.896523396912116,0.013281052203715261
20.970464013232306,0.005048732233832457
23.27202478960412,0.0013412730934302412
25.826187606826746,0.00024195888068109109
28.66067616948256,2.9260561927506982e-05
31.80625692794119,2.359345721787513e-06
35.297073027306574,1.2656151806407933e-07
39.17101490809261,4.512518909134463e-09
43.47013158125035,1.0690149951676499e-10
48.241087041653735,1.6824074678063744e-12
53.535666774107185,1.758875003917275e-14
59.411339849650396,1.2214749035538256e-16
65.93188271333541,5.634762347267331e-19
73.16807143427206,1.7266583138014615e-21
81.19844993184009,3.5146027537014264e-24
90.11018251665037,4.752092017719613e-27
100.0,4.268075355631094e-30
