tau,gamma
1e-07,1.127328755689719e-06
1.1097524964120721e-07,9.687980536367698e-06
1.2315506032928263e-07,4.8686826011019784e-05
1.3667163564620074e-07,0.00014493458747693753
1.5167168884709241e-07,0.0002658081711037305
1.6831803533309585e-07,0.0003323429979157633
1.867913599020781e-07,0.00033656425545738465
2.0729217795953698e-07,0.00031556449008099597
2.300430119772917e-07,0.00028699471267334346
2.5529080682395163e-07,0.00025987549841883557
2.833096101839324e-07,0.00023329749802029285
3.1440354715915e-07,0.00020997102742351033
3.489101213406774e-07,0.00018855990475217697
3.872038781812557e-07,0.00016998736185749817
4.2970047043208437e-07,0.00015359795415439856
4.768611697714474e-07,0.00013920058832869825
5.291978735958437e-07,0.00012686461125042787
5.872786613189477e-07,0.00011578724129270696
6.517339604882421e-07,0.00010651683958389143
7.232633896483533e-07,9.80361114535839e-05
8.026433522257174e-07,9.104822217345277e-05
8.907354638610439e-07,8.461967547820597e-05
9.884959046625586e-07,7.934141212461477e-05
1.096985797892384e-06,7.454843316256061e-05
1.217382727739662e-06,7.056519501419465e-05
1.3509935211980278e-06,6.707081196000934e-05
1.499268432786047e-06,6.407691804054277e-05
1.6638168860761274e-06,6.159656927370143e-05
1.8464249428955464e-06,5.936280163113707e-05
2.049074689815846e-06,5.7649787784571724e-05
2.2739657523579273e-06,5.6002051768149314e-05
2.523539170434766e-06,5.483767434490772e-05
2.800503894183631e-06,5.3638291590806985e-05
3.107866187782014e-06,5.2824661906747885e-05
3.4489622604057595e-06,5.195408367352217e-05
3.827494478516315e-06,5.131233547361862e-05
4.247571552536894e-06,5.0654971753846166e-05
4.713753134116729e-06,5.0033293711316546e-05
5.2310993080562585e-06,4.947167817166175e-05
5.805225516094895e-06,4.876190354388155e-05
6.44236350872137e-06,4.8180760212717046e-05
7.149428986597577e-06,4.733091414297511e-05
7.934096665797492e-06,4.663091439489046e-05
8.804883581643465e-06,4.5641733402981756e-05
9.771241535346501e-06,4.475870314535351e-05
1.0843659686896109e-05,4.366522524827652e-05
1.2033778407775906e-05,4.258605375785912e-05
1.3354515629298974e-05,4.143549567645703e-05
1.48202070579886e-05,4.020120542147122e-05
1.6446761779946626e-05,3.90368842552644e-05
1.8251834943190462e-05,3.772731881523621e-05
2.0255019392306664e-05,3.658160164840973e-05
2.2478058335487252e-05,3.528688558259272e-05
2.4945081352303165e-05,3.4180506234750945e-05
2.7682866303920665e-05,3.297404408567966e-05
3.072112998861759e-05,3.191850258806258e-05
3.409285069746814e-05,3.084293659210105e-05
3.783462617131933e-05,2.984503497433822e-05
4.1987070844439056e-05,2.8912058725345892e-05
4.659525668664687e-05,2.7979672905228325e-05
5.170920242896755e-05,2.717865443551702e-05
5.7384416483024044e-05,2.632517347280826e-05
6.368249944718586e-05,2.5635407704914406e-05
7.067181273927492e-05,2.488022291142134e-05
7.842822061337681e-05,2.428249537371017e-05
8.703591361485166e-05,2.3646455771567894e-05
9.658832241158708e-05,2.3130048799477606e-05
0.00010718913192051276,2.2628365044802387e-05
0.00011895340673703195,2.2191713015951164e-05
0.0001320088400831418,2.1828347461717532e-05
0.00014649713983072864,2.1475263819269823e-05
0.0001625755666443795,2.1240985472380328e-05
0.00018041864093920718,2.0976170800322044e-05
0.00020022003718155845,2.0849793450812902e-05
0.0002221946860939524,2.0675093721699456e-05
0.0002465811075822604,2.062658486499998e-05
0.0002736439997074672,2.0537801703166107e-05
0.00030367711180354605,2.053275301383129e-05
0.00033700643292719284,2.051764826612366e-05
0.0003739937302478798,2.052412468942344e-05
0.0004150404757850477,2.056371942245253e-05
0.00046059220411451084,2.056275288858018e-05
0.0005111433483440171,2.0637888549947103e-05
0.0005672426068491978,2.063517983953124e-05
0.0006294988990221888,2.0738444154246243e-05
0.0006985879746785249,2.077069149161023e-05
0.0007752597488629464,2.0920167270707386e-05
0.000860346441668451,2.105270329956255e-05
0.0009547716114208065,2.1301640873719858e-05
0.001059560179277617,2.1623633332346005e-05
0.0011758495540521582,2.206563727257344e-05
0.0013049019780144017,2.26951969687897e-05
0.001448118227674533,2.347690877468221e-05
0.0016070528182616384,2.4590281746244584e-05
0.0017834308769319094,2.5955501259073953e-05
0.0019791668678535573,2.786717386313212e-05
0.002196385372416547,3.0281678962725137e-05
0.002437444150122222,3.3657694192706445e-05
0.002704959730463137,3.8170635506858755e-05
0.0030018358135755923,4.4687027571409126e-05
0.003331294787934677,5.4193008718875015e-05
0.0036969127071950323,6.919350746612027e-05
0.00410265810582719,9.486009484264234e-05
0.004552935074866948,0.0001491464914005435
0.00505263106533568,0.00034255419875593924
0.005607169938205458,0.0016618744729923138
0.006222570836730231,0.013015464704144986
0.006905513520162331,0.09416909593617978
0.007663410868007463,0.4673203693326266
0.008504489341802686,1.4221024534777278
0.009437878277775391,2.5578827008826943
0.010473708979594508,2.6884855983943416
0.011623224686798541,1.6455406347352524
0.01289890261253308,0.5859338375639744
0.014314589375234785,0.12137429338898516
0.015885651294280528,0.014669295340361686
0.01762914118095948,0.0010784677318342157
0.01956398343517065,8.885226139657337e-05
0.021711179456945052,4.097591323178707e-05
0.02409403560239527,3.448355693819738e-05
0.026738416158399492,3.0409859534069723e-05
0.029673024081888724,2.736373981685394e-05
0.032929712550971546,2.5161717199373958e-05
0.036543830709572546,2.3462338845310846e-05
0.040554607358408275,2.2281024397701808e-05
0.04500557675700498,2.135325357460732e-05
0.0499450511585514,2.0781333213564952e-05
0.05542664520663107,2.035304863954133e-05
0.06150985788580504,2.0184407042656524e-05
0.06826071834272393,2.0123675309184295e-05
0.0757525025877192,2.0249018801018182e-05
0.08406652885618333,2.048905779777159e-05
0.09329304026284696,2.0848729510876123e-05
0.10353218432956637,2.135345113563759e-05
0.11489510001873086,2.1918794206651812e-05
0.1275051240713013,2.2667647604885013e-05
0.1414991297434576,2.3436450457465823e-05
0.15702901247293774,2.4420646126383503e-05
0.17426333860096507,2.541808285424429e-05
0.19338917504552322,2.6644507505224556e-05
0.21461411978584058,2.7923223814901508e-05
0.23816855519761607,2.942153423378441e-05
0.2643081486974108,3.1057427496824864e-05
0.29331662783900486,3.2884284211824355e-05
0.32550885998350565,3.496733683357036e-05
0.36123426997094304,3.720350577460427e-05
0.40088063288984643,3.982315694450978e-05
0.4448782831127585,4.2562546299894675e-05
0.4937047852839004,4.5786483324222216e-05
0.5478901179593945,4.9118198926458056e-05
0.6080224261649427,5.296669274826434e-05
0.67475440531107,5.695283296237635e-05
0.748810385759003,6.138020693371943e-05
0.8309941949353403,6.603456418655049e-05
0.9221978823334341,7.093748321853615e-05
1.0234114021054528,7.620852566396797e-05
1.135733358343105,8.146417314064867e-05
1.2603829296797273,8.722358858291166e-05
1.3987131026472386,9.272488206083927e-05
1.552225357427048,9.87639640542783e-05
1.7225859653987874,0.00010442095608030457
1.9116440753857036,0.00011046688419021796
2.121451784910632,0.00011619599311271473
2.35428641432242,0.00012198436404454339
2.612675225563332,0.00012772577862073142
2.8994228538828812,0.00013314598114088464
3.2176417502507353,0.0001389241865910228
3.5707859649004625,0.00014416500629470773
3.9626886387014784,0.00015017562238655522
4.397603609302721,0.00015576473575748512
4.880251583654434,0.00016243910769014612
5.415871378079476,0.0001691652502530605
6.010276782070388,0.00017716613360071025
6.669919663030129,0.00018596156350385822
7.401959996915652,0.0001961151830339193
8.214343584919439,0.00020795717149302466
9.115888299750837,0.00022116607896248812
10.11637979766207,0.00023699542024442397
11.226677735108158,0.00025411837499070516
12.458833642950081,0.00027391120193764407
13.826221737646593,0.00028855665265129643
15.343684089300131,0.00027868507162238714
17.02769172225898,0.00021059414864046182
18.896523396912116,0.00010560689365666872
20.970464013232306,3.225176910870427e-05
23.27202478960412,5.811618649981218e-06
25.826187606826746,6.116525073398406e-07
28.66067616948256,3.748153398555277e-08
31.80625692794119,1.3360496211973238e-09
35.297073027306574,2.7694651644688788e-11
39.17101490809261,3.3381030361862805e-13
43.47013158125035,2.3394983860916448e-15
48.241087041653735,9.533700981336022e-18
53.535666774107185,2.258993789932319e-20
59.411339849650396,3.112310881126807e-23
65.93188271333541,2.4932465971305024e-26
73.16807143427206,1.1613464598561377e-29
81.19844993184009,3.1453766532878305e-33
90.11018251665037,4.953336220603852e-37
100.0,4.535626108008886e-41
