tau,gamma
1e-07,0.0007293144846431961
1.1097524964120721e-07,0.0010825193313162282
1.2315506032928263e-07,0.0014907181728658668
1.3667163564620074e-07,0.0019100438904904626
1.5167168884709241e-07,0.0022853115544396586
1.6831803533309585e-07,0.0025648205786339105
1.867913599020781e-07,0.0027151567619106373
2.0729217795953698e-07,0.0027295847478206294
2.300430119772917e-07,0.0026268748901826316
2.5529080682395163e-07,0.0024422228644112756
2.833096101839324e-07,0.002215220542192498
3.1440354715915e-07,0.0019799609442013714
3.489101213406774e-07,0.001759988864848812
3.872038781812557e-07,0.0015679486328069381
4.2970047043208437e-07,0.001408067211473694
4.768611697714474e-07,0.0012794211565230502
5.291978735958437e-07,0.0011786712015404972
5.872786613189477e-07,0.0011018190799890455
6.517339604882421e-07,0.0010450982972983415
7.232633896483533e-07,0.001005301838153696
8.026433522257174e-07,0.0009798202171767182
8.907354638610439e-07,0.0009665644493955197
9.884959046625586e-07,0.0009638626192448034
1.096985797892384e-06,0.0009703670877134648
1.217382727739662e-06,0.0009849849954243555
1.3509935211980278e-06,0.0010068353588217024
1.499268432786047e-06,0.0010352330293506764
1.6638168860761274e-06,0.0010696986936789893
1.8464249428955464e-06,0.0011099932620069728
2.049074689815846e-06,0.0011561740729740177
2.2739657523579273e-06,0.0012086695117465723
2.523539170434766e-06,0.0012683681543340006
2.800503894183631e-06,0.0013367184750334017
3.107866187782014e-06,0.0014158351061231388
3.4489622604057595e-06,0.0015086066336997216
3.827494478516315e-06,0.0016187963305285312
4.247571552536894e-06,0.0017511190614938133
4.713753134116729e-06,0.001911263207922007
5.2310993080562585e-06,0.002105806071531071
5.805225516094895e-06,0.0023419493022698687
6.44236350872137e-06,0.002626988841001212
7.149428986597577e-06,0.002967451220723793
7.934096665797492e-06,0.0033678990268657177
8.804883581643465e-06,0.0038295500888120286
9.771241535346501e-06,0.004349057772369696
1.0843659686896109e-05,0.004918005863920102
1.2033778407775906e-05,0.005523770211252373
1.3354515629298974e-05,0.006152256333982149
1.48202070579886e-05,0.00679254989114955
1.6446761779946626e-05,0.0074427595126971505
1.8251834943190462e-05,0.008115513683783887
2.0255019392306664e-05,0.00884105715368995
2.2478058335487252e-05,0.0096660319935211
2.4945081352303165e-05,0.010646979175845613
2.7682866303920665e-05,0.011839179685575168
3.072112998861759e-05,0.01328316688335967
3.409285069746814e-05,0.014992429389114725
3.783462617131933e-05,0.016945949974561482
4.1987070844439056e-05,0.019088130194656636
4.659525668664687e-05,0.021336672844252568
5.170920242896755e-05,0.023596879825740952
5.7384416483024044e-05,0.025779396549948073
6.368249944718586e-05,0.027818181041640404
7.067181273927492e-05,0.02968628542170581
7.842822061337681e-05,0.03140830876623421
8.703591361485166e-05,0.03306943120614516
9.658832241158708e-05,0.03482138913198803
0.00010718913192051276,0.03688558223058693
0.00011895340673703195,0.03955283034055976
0.0001320088400831418,0.04317820625577305
0.00014649713983072864,0.048168110716183155
0.0001625755666443795,0.05495616097624117
0.00018041864093920718,0.06396597060892176
0.00020022003718155845,0.07556358378174692
0.0002221946860939524,0.09000918973211809
0.0002465811075822604,0.10742268065485291
0.0002736439997074672,0.1277750903274657
0.00030367711180354605,0.1509057343151121
0.00033700643292719284,0.17654874637931192
0.0003739937302478798,0.20434542643787063
0.0004150404757850477,0.23383045578309136
0.00046059220411451084,0.26440559693335947
0.0005111433483440171,0.29533220019129625
0.0005672426068491978,0.32576229859409545
0.0006294988990221888,0.35479100768058364
0.0006985879746785249,0.3814844792398171
0.0007752597488629464,0.40485352408735914
0.000860346441668451,0.4238002301392405
0.0009547716114208065,0.43711442244277665
0.001059560179277617,0.44358597611271705
0.0011758495540521582,0.4422252739803104
0.0013049019780144017,0.43250340320803243
0.001448118227674533,0.4145015935734298
0.0016070528182616384,0.388913177701335
0.0017834308769319094,0.35692743717921244
0.0019791668678535573,0.3200782800120062
0.002196385372416547,0.28012755820851054
0.002437444150122222,0.2389915196289518
0.002704959730463137,0.1986620559234031
0.0030018358135755923,0.1610677562317084
0.003331294787934677,0.12786821819364858
0.0036969127071950323,0.10023972302962403
0.00410265810582719,0.07873922651003853
0.004552935074866948,0.06330265953927319
0.00505263106533568,0.05336506296679123
0.005607169938205458,0.0480334693790874
0.006222570836730231,0.04623627646222275
0.006905513520162331,0.04681469635562294
0.007663410868007463,0.048578250275433485
0.008504489341802686,0.050375495133894485
0.009437878277775391,0.051213181920041866
0.010473708979594508,0.050406423002555774
0.011623224686798541,0.04769773265838388
0.01289890261253308,0.04327872650158069
0.014314589375234785,0.03768996781367948
0.015885651294280528,0.03163399650428714
0.01762914118095948,0.025775026392839483
0.01956398343517065,0.020595158919718966
0.021711179456945052,0.01634018344828403
0.02409403560239527,0.013045138175024899
0.026738416158399492,0.01060413124561007
0.029673024081888724,0.008846998099213518
0.032929712550971546,0.007598943011245699
0.036543830709572546,0.006715695798753322
0.040554607358408275,0.006097467522673462
0.04500557675700498,0.005688355075122235
0.0499450511585514,0.005466527701699467
0.05542664520663107,0.005428334658942053
0.06150985788580504,0.0055689685719184515
0.06826071834272393,0.005863865684352235
0.0757525025877192,0.006256938010483845
0.08406652885618333,0.006661462694817071
0.09329304026284696,0.006975502148683356
0.10353218432956637,0.007107242946353932
0.11489510001873086,0.007000228205011856
0.1275051240713013,0.006647815156326716
0.1414991297434576,0.006091189682681654
0.15702901247293774,0.0054030310353669645
0.17426333860096507,0.004664850665698804
0.19338917504552322,0.003947131564014349
0.21461411978584058,0.0032980484020144244
0.23816855519761607,0.00274158685544094
0.2643081486974108,0.0022822081958167122
0.29331662783900486,0.0019120671387137266
0.32550885998350565,0.0016176744873991156
0.36123426997094304,0.0013845294698339723
0.40088063288984643,0.001199601567801398
0.4448782831127585,0.0010522280171232443
0.4937047852839004,0.0009341146490250128
0.5478901179593945,0.0008389626307275737
0.6080224261649427,0.000762020567455366
0.67475440531107,0.0006996913228639269
0.748810385759003,0.0006492268550436956
0.8309941949353403,0.0006085032870561208
0.9221978823334341,0.0005758572958669522
1.0234114021054528,0.000549966137554128
1.135733358343105,0.0005297581891634814
1.2603829296797273,0.0005143452563065379
1.3987131026472386,0.0005029711747686816
1.552225357427048,0.0004949734598669213
1.7225859653987874,0.0004897561606447088
1.9116440753857036,0.0004867728556838666
2.121451784910632,0.00048551902195536836
2.35428641432242,0.00048553292600253306
2.612675225563332,0.0004864038359207353
2.8994228538828812,0.0004877858529160526
3.2176417502507353,0.0004894151297693979
3.5707859649004625,0.0004911277432336522
3.9626886387014784,0.0004928749238531404
4.397603609302721,0.0004947313132212906
4.880251583654434,0.0004968895790905642
5.415871378079476,0.0004996300440505897
6.010276782070388,0.0005032469390457054
6.669919663030129,0.0005079070026740534
7.401959996915652,0.0005134213315398361
8.214343584919439,0.0005189429068989977
9.115888299750837,0.0005226697861220731
10.11637979766207,0.0005217206873745973
11.226677735108158,0.0005123965558384082
12.458833642950081,0.0004909664016758225
13.826221737646593,0.0004548804298046455
15.343684089300131,0.0004040018714986311
17.02769172225898,0.0003412652578652108
18.896523396912116,0.0002723075942589364
20.970464013232306,0.00020408059273625362
23.27202478960412,0.0001429818888520622
25.826187606826746,9.3293437892657e-05
28.66067616948256,5.651856588787638e-05
31.80625692794119,3.171359021585498e-05
35.297073027306574,1.6450176335255906e-05
39.17101490809261,7.87575180314243e-06
43.47013158125035,3.4759141084146662e-06
48.241087041653735,1.412755054240185e-06
53.535666774107185,5.283661439718387e-07
59.411339849650396,1.8171462561636803e-07
65.93188271333541,5.743831289316476e-08
73.16807143427206,1.667951583191065e-08
81.19844993184009,4.4481852492802626e-09
90.11018251665037,1.0891196417573395e-09
100.0,2.4477096451469306e-10
