tau,gamma
1e-07,0.0016892110930490725
1.1097524964120721e-07,0.0036903987172681235
1.2315506032928263e-07,0.006674116704320723
1.3667163564620074e-07,0.010049184969225862
1.5167168884709241e-07,0.012740042214348563
1.6831803533309585e-07,0.013886064762706473
1.867913599020781e-07,0.013454475878391423
2.0729217795953698e-07,0.012046506332207635
2.300430119772917e-07,0.010150902404396912
2.5529080682395163e-07,0.007804387275170603
2.833096101839324e-07,0.0049708126534880916
3.1440354715915e-07,0.0019402125844069907
3.489101213406774e-07,-0.0008257887758988811
3.872038781812557e-07,-0.003074452762555592
4.2970047043208437e-07,-0.004804815974789134
4.768611697714474e-07,-0.006023793205063549
5.291978735958437e-07,-0.006643698988118802
5.872786613189477e-07,-0.00661833483051202
6.517339604882421e-07,-0.006045743086719623
7.232633896483533e-07,-0.005092712716252348
8.026433522257174e-07,-0.0038884869409824764
8.907354638610439e-07,-0.0025285327936625294
9.884959046625586e-07,-0.00112913259369344
1.096985797892384e-06,0.00017561582997822992
1.217382727739662e-06,0.0012826711760937897
1.3509935211980278e-06,0.0021397726548080982
1.499268432786047e-06,0.0027240845315630847
1.6638168860761274e-06,0.0030254707042109545
1.8464249428955464e-06,0.003054068678883408
2.049074689815846e-06,0.0028482378723719433
2.2739657523579273e-06,0.0024650270810355254
2.523539170434766e-06,0.001964861910474005
2.800503894183631e-06,0.0014055152089758871
3.107866187782014e-06,0.0008424288991572457
3.4489622604057595e-06,0.00032574873905280637
3.827494478516315e-06,-0.0001059708683646335
4.247571552536894e-06,-0.0004290416512291136
4.713753134116729e-06,-0.0006332486245732844
5.2310993080562585e-06,-0.0007194230165015048
5.805225516094895e-06,-0.0006981205663501172
6.44236350872137e-06,-0.0005879835084281067
7.149428986597577e-06,-0.00041250909005245397
7.934096665797492e-06,-0.00019625105691118192
8.804883581643465e-06,3.809322711984852e-05
9.771241535346501e-06,0.000271606413264289
1.0843659686896109e-05,0.0004906515781286703
1.2033778407775906e-05,0.0006879361604510212
1.3354515629298974e-05,0.0008626668970579508
1.48202070579886e-05,0.0010196978574510498
1.6446761779946626e-05,0.0011680324067505948
1.8251834943190462e-05,0.001319012853722505
2.0255019392306664e-05,0.0014843148812718903
2.2478058335487252e-05,0.001673864323571742
2.4945081352303165e-05,0.0018939566663932982
2.7682866303920665e-05,0.0021458758175956463
3.072112998861759e-05,0.0024251733685683834
3.409285069746814e-05,0.002721674934490216
3.783462617131933e-05,0.0030202490220094164
4.1987070844439056e-05,0.0033023377737187356
4.659525668664687e-05,0.0035481453216537604
5.170920242896755e-05,0.0037392733532025063
5.7384416483024044e-05,0.0038615691664191216
6.368249944718586e-05,0.003907919382679283
7.067181273927492e-05,0.0038806830945471438
7.842822061337681e-05,0.0037934341326932622
8.703591361485166e-05,0.0036717421904611065
9.658832241158708e-05,0.003552857255117918
0.00010718913192051276,0.003484186575271463
0.00011895340673703195,0.003520472095349763
0.0001320088400831418,0.003719729764948987
0.00014649713983072864,0.004138302162201744
0.0001625755666443795,0.004825524450784294
0.00018041864093920718,0.0058182951519572
0.00020022003718155845,0.00713581477418948
0.0002221946860939524,0.00877520323433915
0.0002465811075822604,0.010709031136814932
0.0002736439997074672,0.01288522209840713
0.00030367711180354605,0.015228839906907748
0.00033700643292719284,0.017645722314234016
0.0003739937302478798,0.020029210842317832
0.0004150404757850477,0.022270639767427568
0.00046059220411451084,0.02427152942685666
0.0005111433483440171,0.02595472481665656
0.0005672426068491978,0.027275472589159584
0.0006294988990221888,0.028235354248150706
0.0006985879746785249,0.02889644638908429
0.0007752597488629464,0.02938759327049187
0.000860346441668451,0.02990126734476464
0.0009547716114208065,0.030691143502534546
0.001059560179277617,0.03207470177734665
0.0011758495540521582,0.03442527475682132
0.0013049019780144017,0.038140027666647834
0.001448118227674533,0.04360319719080432
0.0016070528182616384,0.0511745576799342
0.0017834308769319094,0.06118688279169183
0.0019791668678535573,0.07390337811732926
0.002196385372416547,0.0894459467300031
0.002437444150122222,0.1077795803866042
0.002704959730463137,0.12877535987580488
0.0030018358135755923,0.15223477769850233
0.003331294787934677,0.17779755598723634
0.0036969127071950323,0.2048814649708501
0.00410265810582719,0.23284172579099513
0.004552935074866948,0.2612378830865723
0.00505263106533568,0.28993285177399575
0.005607169938205458,0.319072214553846
0.006222570836730231,0.3491682791320307
0.006905513520162331,0.3808554772360975
0.007663410868007463,0.4134121894452337
0.008504489341802686,0.4426506563639457
0.009437878277775391,0.46108578975314224
0.010473708979594508,0.4621704138560737
0.011623224686798541,0.4453833791969055
0.01289890261253308,0.4167233203937677
0.014314589375234785,0.38400219853707296
0.015885651294280528,0.3520519679066791
0.01762914118095948,0.3219268761452018
0.01956398343517065,0.29297146352983555
0.021711179456945052,0.2645744652348008
0.02409403560239527,0.23653605263372735
0.026738416158399492,0.208930193901717
0.029673024081888724,0.18210340871943986
0.032929712550971546,0.15662815840985833
0.036543830709572546,0.13306049025682995
0.040554607358408275,0.11174647465882935
0.04500557675700498,0.0928573713145024
0.0499450511585514,0.07650227161900147
0.05542664520663107,0.06273077198320309
0.06150985788580504,0.0514672304151802
0.06826071834272393,0.04250970335454008
0.0757525025877192,0.03559858288648718
0.08406652885618333,0.030465854536544795
0.09329304026284696,0.026835240753407767
0.10353218432956637,0.02442023320858991
0.11489510001873086,0.022948413035898407
0.1275051240713013,0.022186899958193392
0.1414991297434576,0.021943540445089157
0.15702901247293774,0.02205367531484036
0.17426333860096507,0.022372068054518596
0.19338917504552322,0.022770210193765347
0.21461411978584058,0.0231286577168994
0.23816855519761607,0.023323941650223265
0.2643081486974108,0.023218639285033007
0.29331662783900486,0.022658986329543853
0.32550885998350565,0.021477323192668624
0.36123426997094304,0.019497018414390093
0.40088063288984643,0.016541281865284554
0.4448782831127585,0.012447294928605537
0.4937047852839004,0.007083892990657499
0.5478901179593945,0.00036941703141583134
0.6080224261649427,-0.007712652912390485
0.67475440531107,-0.01710164742574324
0.748810385759003,-0.02765229882378159
0.8309941949353403,-0.039133169307298765
0.9221978823334341,-0.05123160295621766
1.0234114021054528,-0.06356472471846165
1.135733358343105,-0.07569514777912131
1.2603829296797273,-0.08715001214429555
1.3987131026472386,-0.09744401142722557
1.552225357427048,-0.1061081930641688
1.7225859653987874,-0.11272393651916829
1.9116440753857036,-0.11695744905769412
2.121451784910632,-0.118589432966993
2.35428641432242,-0.11753795809486738
2.612675225563332,-0.11387198201975933
2.8994228538828812,-0.1078085940196703
3.2176417502507353,-0.09968896866097506
3.5707859649004625,-0.08994170114049915
3.9626886387014784,-0.0790511907031421
4.397603609302721,-0.06753398035661164
4.880251583654434,-0.05590745748539319
5.415871378079476,-0.04464674929166729
6.010276782070388,-0.03415441691399066
6.669919663030129,-0.02476023732291934
7.401959996915652,-0.016723338748476986
8.214343584919439,-0.010201964754113514
9.115888299750837,-0.00521631833886961
10.11637979766207,-0.0016657896861828404
11.226677735108158,0.0006038915583503793
12.458833642950081,0.0017655672041513868
13.826221737646593,0.0020451821614093976
15.343684089300131,0.0017518072447115826
17.02769172225898,0.0012231273510965774
18.896523396912116,0.0007190487743502299
20.970464013232306,0.0003612047979467126
23.27202478960412,0.0001561248869551224
25.826187606826746,5.814184850563829e-05
28.66067616948256,1.859425993056184e-05
31.80625692794119,5.074301760134348e-06
35.297073027306574,1.1726769235016701e-06
39.17101490809261,2.2783040785983608e-07
43.47013158125035,3.698321047900457e-08
48.241087041653735,4.992241975016303e-09
53.535666774107185,5.584497173044135e-10
59.411339849650396,5.164392901619084e-11
65.93188271333541,3.941707388422969e-12
73.16807143427206,2.480267840669189e-13
81.19844993184009,1.285709862785632e-14
90.11018251665037,5.487917705260335e-16
100.0,1.9282122515414184e-17
