tau,gamma
1e-07,0.0006776460032870164
1.1097524964120721e-07,0.0015553677289191267
1.2315506032928263e-07,0.003028210041347266
1.3667163564620074e-07,0.005079350654186613
1.5167168884709241e-07,0.007501266035769611
1.6831803533309585e-07,0.010027496651795592
1.867913599020781e-07,0.012506526507822774
2.0729217795953698e-07,0.014941627485816183
2.300430119772917e-07,0.017387416495476603
2.5529080682395163e-07,0.019854806404894256
2.833096101839324e-07,0.02231810938559532
3.1440354715915e-07,0.024765491839319833
3.489101213406774e-07,0.027208819396242846
3.872038781812557e-07,0.029657794262724285
4.2970047043208437e-07,0.032108033134695346
4.768611697714474e-07,0.03455322232746233
5.291978735958437e-07,0.036994899542067056
5.872786613189477e-07,0.03943760945296459
6.517339604882421e-07,0.04188203995235691
7.232633896483533e-07,0.04432628551074716
8.026433522257174e-07,0.046770164011017246
8.907354638610439e-07,0.04921545861754586
9.884959046625586e-07,0.0516634303584655
1.096985797892384e-06,0.0541140950545923
1.217382727739662e-06,0.056567519787601765
1.3509935211980278e-06,0.059024532225524326
1.499268432786047e-06,0.06148612056865965
1.6638168860761274e-06,0.06395286531684963
1.8464249428955464e-06,0.06642516106300414
2.049074689815846e-06,0.06890359144662261
2.2739657523579273e-06,0.0713888802958966
2.523539170434766e-06,0.07388165494669557
2.800503894183631e-06,0.07638241216801972
3.107866187782014e-06,0.07889165041897893
3.4489622604057595e-06,0.08140990805855484
3.827494478516315e-06,0.08393769882926337
4.247571552536894e-06,0.08647546110197823
4.713753134116729e-06,0.08902358893355398
5.2310993080562585e-06,0.09158245737620736
5.805225516094895e-06,0.09415241108063865
6.44236350872137e-06,0.09673373982725007
7.149428986597577e-06,0.09932667441926625
7.934096665797492e-06,0.10193139934712037
8.804883581643465e-06,0.10454804629452008
9.771241535346501e-06,0.10717668979994066
1.0843659686896109e-05,0.10981733383329428
1.2033778407775906e-05,0.11246991822070564
1.3354515629298974e-05,0.11513431128196769
1.48202070579886e-05,0.11781030926127008
1.6446761779946626e-05,0.12049762764704808
1.8251834943190462e-05,0.12319589821290813
2.0255019392306664e-05,0.12590466755352991
2.2478058335487252e-05,0.1286233887651227
2.4945081352303165e-05,0.13135142219555496
2.7682866303920665e-05,0.13408802315357252
3.072112998861759e-05,0.13683234597543786
3.409285069746814e-05,0.13958343097252374
3.783462617131933e-05,0.1423402074667768
4.1987070844439056e-05,0.14510148263205888
4.659525668664687e-05,0.14786594145103704
5.170920242896755e-05,0.15063214078834689
5.7384416483024044e-05,0.15339850416403056
6.368249944718586e-05,0.15616332170679073
7.067181273927492e-05,0.15892473979564012
7.842822061337681e-05,0.1616807660542132
8.703591361485166e-05,0.16442925580033566
9.658832241158708e-05,0.16716791874186207
0.00010718913192051276,0.1698943052012065
0.00011895340673703195,0.1726058104117437
0.0001320088400831418,0.175299663979193
0.00014649713983072864,0.1779729280077658
0.0001625755666443795,0.1806224914986163
0.00018041864093920718,0.18324506012280845
0.00020022003718155845,0.18583715597880227
0.0002221946860939524,0.188395100264963
0.0002465811075822604,0.19091501582307555
0.0002736439997074672,0.19339280526903277
0.00030367711180354605,0.19582415353645713
0.00033700643292719284,0.19820450905367756
0.0003739937302478798,0.20052908417068685
0.0004150404757850477,0.20279284380713175
0.00046059220411451084,0.20499050378380304
0.0005111433483440171,0.20711653898871712
0.0005672426068491978,0.2091651896506856
0.0006294988990221888,0.2111304904796016
0.0006985879746785249,0.2130062835312384
0.0007752597488629464,0.21478626554861852
0.000860346441668451,0.21646400637496288
0.0009547716114208065,0.2180329657872769
0.001059560179277617,0.2194864320953921
0.0011758495540521582,0.2208174068640523
0.0013049019780144017,0.2220183995714542
0.001448118227674533,0.2230811229739883
0.0016070528182616384,0.22399612264040425
0.0017834308769319094,0.22475245244944062
0.0019791668678535573,0.22533766994614735
0.002196385372416547,0.22573831287287455
0.002437444150122222,0.22594109939297122
0.002704959730463137,0.22593503734479536
0.0030018358135755923,0.22571450514616545
0.003331294787934677,0.22528249306869086
0.0036969127071950323,0.224653638198225
0.00410265810582719,0.22386055796373533
0.004552935074866948,0.22296909956988645
0.00505263106533568,0.2220924696936037
0.005607169938205458,0.2213623974495235
0.006222570836730231,0.22082068400016958
0.006905513520162331,0.22028463742690937
0.007663410868007463,0.21933413712052474
0.008504489341802686,0.21750216488231033
0.009437878277775391,0.21454652851440073
0.010473708979594508,0.2105851090993919
0.011623224686798541,0.2060057144785646
0.01289890261253308,0.20124320734144377
0.014314589375234785,0.19658197519771098
0.015885651294280528,0.19209041845783148
0.01762914118095948,0.18768685221866355
0.01956398343517065,0.18325008426285722
0.021711179456945052,0.17869022381368535
0.02409403560239527,0.1739622343474171
0.026738416158399492,0.16905212612564244
0.029673024081888724,0.1639630585252443
0.032929712550971546,0.1587079529579383
0.036543830709572546,0.15330542415055148
0.040554607358408275,0.14777673328496754
0.04500557675700498,0.1421435991571742
0.0499450511585514,0.13642711866136106
0.05542664520663107,0.13064754891739663
0.06150985788580504,0.12482458199339935
0.06826071834272393,0.11897771951252784
0.0757525025877192,0.11312654940739876
0.08406652885618333,0.10729082555671589
0.09329304026284696,0.10149037703397369
0.10353218432956637,0.09574494355069196
0.11489510001873086,0.09007398357703382
0.1275051240713013,0.08449651080762831
0.1414991297434576,0.07903093036981694
0.15702901247293774,0.0736949011833522
0.17426333860096507,0.06850519460559436
0.19338917504552322,0.06347756306032581
0.21461411978584058,0.05862660898538043
0.23816855519761607,0.05396566478020777
0.2643081486974108,0.04950669582545366
0.29331662783900486,0.045260207299749715
0.32550885998350565,0.041235161265939055
0.36123426997094304,0.03743889453703402
0.40088063288984643,0.033877070699147485
0.4448782831127585,0.030553646133071537
0.4937047852839004,0.027470834749032957
0.5478901179593945,0.024629072621804835
0.6080224261649427,0.02202703139589147
0.67475440531107,0.01966169479547033
0.748810385759003,0.017528418522231783
0.8309941949353403,0.015620933434211422
0.9221978823334341,0.013931382663513492
1.0234114021054528,0.012450510885043193
1.135733358343105,0.011167882249553005
1.2603829296797273,0.010071900908234475
1.3987131026472386,0.009149732845460144
1.552225357427048,0.008387530373886414
1.7225859653987874,0.007770953505817089
1.9116440753857036,0.007285335264660187
2.121451784910632,0.006915249550559495
2.35428641432242,0.006644418418971794
2.612675225563332,0.006456704532732263
2.8994228538828812,0.006336986422918657
3.2176417502507353,0.0062702673353663835
3.5707859649004625,0.006240274014692433
3.9626886387014784,0.006230621942932085
4.397603609302721,0.006227778068555482
4.880251583654434,0.006220719013865304
5.415871378079476,0.006196487546047302
6.010276782070388,0.006139240125744048
6.669919663030129,0.006036997302226867
7.401959996915652,0.005886135972748364
8.214343584919439,0.005683247870831329
9.115888299750837,0.005415302070348503
10.11637979766207,0.005068125630429048
11.226677735108158,0.0046450587497023155
12.458833642950081,0.004162703793332433
13.826221737646593,0.0036214737529936293
15.343684089300131,0.0029986004038891623
17.02769172225898,0.002291922176587903
18.896523396912116,0.0015654745684715587
20.970464013232306,0.0009300877516775936
23.27202478960412,0.00047138470796268325
25.826187606826746,0.0002011659679014965
28.66067616948256,7.168356862806377e-05
31.80625692794119,2.1215293606679225e-05
35.297073027306574,5.197128636059796e-06
39.17101490809261,1.0515193468325052e-06
43.47013158125035,1.7547029606569684e-07
48.241087041653735,2.4128576593339768e-08
53.535666774107185,2.732431130509111e-09
59.411339849650396,2.547375358070236e-10
65.93188271333541,1.954596527314586e-11
73.16807143427206,1.2341649539681628e-12
81.19844993184009,6.412047513594875e-14
90.11018251665037,2.740935572078787e-15
100.0,9.639638783628923e-17
