tau,gamma
1e-07,1.6615038419063763e-07
1.1097524964120721e-07,1.4278844752476991e-06
1.2315506032928263e-07,7.17630602858069e-06
1.3667163564620074e-07,2.1367629324294734e-05
1.5167168884709241e-07,3.921314727499411e-05
1.6831803533309585e-07,4.9101612160306586e-05
1.867913599020781e-07,4.9816266376920696e-05
2.0729217795953698e-07,4.668502381681458e-05
2.300430119772917e-07,4.225074370714348e-05
2.5529080682395163e-07,3.792264784081587e-05
2.833096101839324e-07,3.360916801929491e-05
3.1440354715915e-07,2.9748424503208122e-05
3.489101213406774e-07,2.6180654872676144e-05
3.872038781812557e-07,2.303590571672015e-05
4.2970047043208437e-07,2.0256622218420702e-05
4.768611697714474e-07,1.7795121400963672e-05
5.291978735958437e-07,1.5690610897067288e-05
5.872786613189477e-07,1.3816585103936145e-05
6.517339604882421e-07,1.225423582847321e-05
7.232633896483533e-07,1.0867975985705551e-05
8.026433522257174e-07,9.731311337633766e-06
8.907354638610439e-07,8.736848201583818e-06
9.884959046625586e-07,7.928132835421308e-06
1.096985797892384e-06,7.237017940624062e-06
1.217382727739662e-06,6.675545879831093e-06
1.3509935211980278e-06,6.212206415702257e-06
1.499268432786047e-06,5.833738578365571e-06
1.6638168860761274e-06,5.538169997420604e-06
1.8464249428955464e-06,5.293968388202011e-06
2.049074689815846e-06,5.120463652133827e-06
2.2739657523579273e-06,4.974545615152537e-06
2.523539170434766e-06,4.88774307129762e-06
2.800503894183631e-06,4.812600465288544e-06
3.107866187782014e-06,4.782551713207849e-06
3.4489622604057595e-06,4.75445448065674e-06
3.827494478516315e-06,4.752416544946278e-06
4.247571552536894e-06,4.7478040224300395e-06
4.713753134116729e-06,4.744910341697456e-06
5.2310993080562585e-06,4.7391960291530455e-06
5.805225516094895e-06,4.709628179302669e-06
6.44236350872137e-06,4.678946324620723e-06
7.149428986597577e-06,4.605864134173041e-06
7.934096665797492e-06,4.53160245630951e-06
8.804883581643465e-06,4.411218877974448e-06
9.771241535346501e-06,4.2856826295911476e-06
1.0843659686896109e-05,4.126306441705443e-06
1.2033778407775906e-05,3.955927605812683e-06
1.3354515629298974e-05,3.7730365476784135e-06
1.48202070579886e-05,3.57596046253176e-06
1.6446761779946626e-05,3.3865001792134104e-06
1.8251834943190462e-05,3.1850279912689435e-06
2.0255019392306664e-05,3.003188220499182e-06
2.2478058335487252e-05,2.815709558233132e-06
2.4945081352303165e-05,2.650720288680759e-06
2.7682866303920665e-05,2.4877164580214216e-06
3.072112998861759e-05,2.343629688169329e-06
3.409285069746814e-05,2.2081811860914703e-06
3.783462617131933e-05,2.08526694044737e-06
4.1987070844439056e-05,1.9756913864778086e-06
4.659525668664687e-05,1.8724563722082238e-06
5.170920242896755e-05,1.7850047911964868e-06
5.7384416483024044e-05,1.6998237758342105e-06
6.368249944718586e-05,1.6306366076787565e-06
7.067181273927492e-05,1.56255186608837e-06
7.842822061337681e-05,1.508769594390876e-06
8.703591361485166e-05,1.4574737602721145e-06
9.658832241158708e-05,1.4175512319335142e-06
0.00010718913192051276,1.382963689118441e-06
0.00011895340673703195,1.3563794284176283e-06
0.0001320088400831418,1.3382548848266982e-06
0.00014649713983072864,1.3249967034855974e-06
0.0001625755666443795,1.3227221001426401e-06
0.00018041864093920718,1.3228764979663653e-06
0.00020022003718155845,1.3353308703262495e-06
0.0002221946860939524,1.3487328103909715e-06
0.0002465811075822604,1.3740125260767367e-06
0.0002736439997074672,1.3997562648598688e-06
0.00030367711180354605,1.4347073318416374e-06
0.00033700643292719284,1.4705267034271425e-06
0.0003739937302478798,1.5104239966522033e-06
0.0004150404757850477,1.552341697611581e-06
0.00046059220411451084,1.5915554811181034e-06
0.0005111433483440171,1.6344203420936876e-06
0.0005672426068491978,1.6686313789555932e-06
0.0006294988990221888,1.7079763125275243e-06
0.0006985879746785249,1.7368903627084476e-06
0.0007752597488629464,1.771686773179493e-06
0.000860346441668451,1.8001176732473607e-06
0.0009547716114208065,1.8347166069886817e-06
0.001059560179277617,1.8715704009890043e-06
0.0011758495540521582,1.9154811863795473e-06
0.0013049019780144017,1.9724855504849345e-06
0.001448118227674533,2.039429767760417e-06
0.0016070528182616384,2.1317216377944757e-06
0.0017834308769319094,2.2411284617879768e-06
0.0019791668678535573,2.3916967420012093e-06
0.002196385372416547,2.5759434348259236e-06
0.002437444150122222,2.8279741551735602e-06
0.002704959730463137,3.152114887747556e-06
0.0030018358135755923,3.601985833810648e-06
0.003331294787934677,4.219747044242709e-06
0.0036969127071950323,5.117484115667982e-06
0.00410265810582719,6.462045568355692e-06
0.004552935074866948,9.00937783242029e-06
0.00505263106533568,3.3240003319869594e-05
0.005607169938205458,0.00059812780757019
0.006222570836730231,0.009231174284416313
0.006905513520162331,0.08487327010111692
0.007663410868007463,0.454626729091509
0.008504489341802686,1.4163142685323944
0.009437878277775391,2.565659971059154
0.010473708979594508,2.702464755205803
0.011623224686798541,1.6551772430553333
0.01289890261253308,0.5894861645393271
0.014314589375234785,0.12211281476157354
0.015885651294280528,0.014743460244355997
0.01762914118095948,0.0010638086885543883
0.01956398343517065,6.780711901297948e-05
0.021711179456945052,2.1123829390374147e-05
0.02409403560239527,1.6331379715336417e-05
0.026738416158399492,1.3738347028144939e-05
0.029673024081888724,1.189540698678872e-05
0.032929712550971546,1.058812128283114e-05
0.036543830709572546,9.596291896905638e-06
0.040554607358408275,8.89019721480849e-06
0.04500557675700498,8.340700026357029e-06
0.0499450511585514,7.97114172189477e-06
0.05542664520663107,7.693575755757489e-06
0.06150985788580504,7.540923844552051e-06
0.06826071834272393,7.455191838238038e-06
0.0757525025877192,7.458289820371866e-06
0.08406652885618333,7.522697080632263e-06
0.09329304026284696,7.647122867939115e-06
0.10353218432956637,7.838810003520707e-06
0.11489510001873086,8.067295625826195e-06
0.1275051240713013,8.377030424254714e-06
0.1414991297434576,8.712048009106145e-06
0.15702901247293774,9.148382943007516e-06
0.17426333860096507,9.620763577758678e-06
0.19338917504552322,1.0221289270624851e-05
0.21461411978584058,1.090042003409207e-05
0.23816855519761607,1.1747006589120384e-05
0.2643081486974108,1.2753058931951924e-05
0.29331662783900486,1.3989223747234034e-05
0.32550885998350565,1.5512039628831436e-05
0.36123426997094304,1.736488871350734e-05
0.40088063288984643,1.969143957718219e-05
0.4448782831127585,2.2498388197599317e-05
0.4937047852839004,2.6039176947650626e-05
0.5478901179593945,3.0264599744215608e-05
0.6080224261649427,3.55468863806267e-05
0.67475440531107,4.175270341843702e-05
0.748810385759003,4.9325801111608636e-05
0.8309941949353403,5.805649507422871e-05
0.9221978823334341,6.827594718169555e-05
1.0234114021054528,7.983266838533261e-05
1.135733358343105,9.257458392621334e-05
1.2603829296797273,0.00010666380895628348
1.3987131026472386,0.00012105506215756685
1.552225357427048,0.00013636254892590167
1.7225859653987874,0.00015060925883381179
1.9116440753857036,0.0001645999737870239
2.121451784910632,0.00017626431514912975
2.35428641432242,0.00018590090145475318
2.612675225563332,0.0001929074545600004
2.8994228538828812,0.00019653944007459417
3.2176417502507353,0.00019839147170101252
3.5707859649004625,0.00019710057499772144
3.9626886387014784,0.00019536450635196097
4.397603609302721,0.00019209495684919487
4.880251583654434,0.00018957190437118065
5.415871378079476,0.00018735193322085738
6.010276782070388,0.0001866866993568147
6.669919663030129,0.00018770368463004694
7.401959996915652,0.00019070328421183762
8.214343584919439,0.0001963028639776917
9.115888299750837,0.0002040173241031604
10.11637979766207,0.0002149740182664093
11.226677735108158,0.00022788673800990734
12.458833642950081,0.00024377682774416902
13.826221737646593,0.0002556371888694068
15.343684089300131,0.00024625115534008255
17.02769172225898,0.0001858641402051615
18.896523396912116,9.316556558974274e-05
20.970464013232306,2.844834129524087e-05
23.27202478960412,5.126041787294909e-06
25.826187606826746,5.394910200643743e-07
28.66067616948256,3.305941260827177e-08
31.80625692794119,1.1784193264809293e-09
35.297073027306574,2.4427162516896363e-11
39.17101490809261,2.9442643921766397e-13
43.47013158125035,2.0634778190404195e-15
48.241087041653735,8.408888176667131e-18
53.535666774107185,1.9924713553670765e-20
59.411339849650396,2.745111696113658e-23
65.93188271333541,2.1990863556620413e-26
73.16807143427206,1.0243275401643995e-29
81.19844993184009,2.7742762745187444e-33
90.11018251665037,4.368927690129409e-37
100.0,4.000500190737058e-41
