tau,gamma
1e-07,-0.009923223664841175
1.1097524964120721e-07,-0.051016994985241426
1.2315506032928263e-07,-0.17830350450101146
1.3667163564620074e-07,-0.4365487637108565
1.5167168884709241e-07,-0.7939605655235773
1.6831803533309585e-07,-1.1715601739401942
1.867913599020781e-07,-1.5302721554660645
2.0729217795953698e-07,-1.8673175212323987
2.300430119772917e-07,-2.1887460337520515
2.5529080682395163e-07,-2.492548842762457
2.833096101839324e-07,-2.77285692894826
3.1440354715915e-07,-3.0283677625930125
3.489101213406774e-07,-3.253397984149014
3.872038781812557e-07,-3.448553306428916
4.2970047043208437e-07,-3.6076363836106666
4.768611697714474e-07,-3.729858708053059
5.291978735958437e-07,-3.8096876453648485
5.872786613189477e-07,-3.84337293470285
6.517339604882421e-07,-3.8280535669980984
7.232633896483533e-07,-3.7592943663416944
8.026433522257174e-07,-3.6415970268585327
8.907354638610439e-07,-3.4748036651426277
9.884959046625586e-07,-3.2694171921144566
1.096985797892384e-06,-3.0304082619689967
1.217382727739662e-06,-2.766392850244872
1.3509935211980278e-06,-2.482930468901854
1.499268432786047e-06,-2.1846214840473333
1.6638168860761274e-06,-1.8780961714842994
1.8464249428955464e-06,-1.5668553670488115
2.049074689815846e-06,-1.2598309694234882
2.2739657523579273e-06,-0.9619184908362797
2.523539170434766e-06,-0.6816388462115934
2.800503894183631e-06,-0.4254767613563828
3.107866187782014e-06,-0.19994014636863403
3.4489622604057595e-06,-0.012176733497641036
3.827494478516315e-06,0.13425867580071268
4.247571552536894e-06,0.23517276190243963
4.713753134116729e-06,0.29165937381917767
5.2310993080562585e-06,0.30728431100822434
5.805225516094895e-06,0.2879181536942275
6.44236350872137e-06,0.24308951281442356
7.149428986597577e-06,0.18139821900091646
7.934096665797492e-06,0.11278451387565235
8.804883581643465e-06,0.0458471256188436
9.771241535346501e-06,-0.012230515091930107
1.0843659686896109e-05,-0.05510606707035625
1.2033778407775906e-05,-0.07996495001980851
1.3354515629298974e-05,-0.08556054342086054
1.48202070579886e-05,-0.0735367101960223
1.6446761779946626e-05,-0.048085070810920456
1.8251834943190462e-05,-0.013887682421134442
2.0255019392306664e-05,0.022895751069635716
2.2478058335487252e-05,0.05694646709887475
2.4945081352303165e-05,0.08394810904321426
2.7682866303920665e-05,0.10058913762267564
3.072112998861759e-05,0.10625453618362217
3.409285069746814e-05,0.10147656917734542
3.783462617131933e-05,0.08864350841023332
4.1987070844439056e-05,0.07133831384536955
4.659525668664687e-05,0.052983938397379846
5.170920242896755e-05,0.037270420769930285
5.7384416483024044e-05,0.026728790212997466
6.368249944718586e-05,0.022749668865924413
7.067181273927492e-05,0.025734944753717827
7.842822061337681e-05,0.03457679744142547
8.703591361485166e-05,0.047558603400171866
9.658832241158708e-05,0.0625642684049741
0.00010718913192051276,0.07720846360903583
0.00011895340673703195,0.08988747101944047
0.0001320088400831418,0.0993045296505597
0.00014649713983072864,0.10505851126161163
0.0001625755666443795,0.10754470885882939
0.00018041864093920718,0.10744195195145187
0.00020022003718155845,0.106024310516751
0.0002221946860939524,0.10435657746917272
0.0002465811075822604,0.10345111720525453
0.0002736439997074672,0.10392156767628809
0.00030367711180354605,0.10599373891635208
0.00033700643292719284,0.10944290669879411
0.0003739937302478798,0.11382216032542383
0.0004150404757850477,0.11837621725026264
0.00046059220411451084,0.12238066805820666
0.0005111433483440171,0.12521857826289642
0.0005672426068491978,0.1263527097995574
0.0006294988990221888,0.12579554950001515
0.0006985879746785249,0.12359225983073639
0.0007752597488629464,0.12038861675445754
0.000860346441668451,0.11687215482055684
0.0009547716114208065,0.11390586973891204
0.001059560179277617,0.11232751610707842
0.0011758495540521582,0.11266584351431345
0.0013049019780144017,0.11514504775769895
0.001448118227674533,0.11953719609567251
0.0016070528182616384,0.12515478145590456
0.0017834308769319094,0.13097259859207405
0.0019791668678535573,0.13592875695677212
0.002196385372416547,0.1387805963323667
0.002437444150122222,0.13893190014902818
0.002704959730463137,0.1358833188620522
0.0030018358135755923,0.1298874368154113
0.003331294787934677,0.12163720917277973
0.0036969127071950323,0.1120106435428392
0.00410265810582719,0.10230283208040922
0.004552935074866948,0.09347616673141829
0.00505263106533568,0.08645836710061067
0.005607169938205458,0.08174264440447804
0.006222570836730231,0.07944927871688771
0.006905513520162331,0.07934272915792882
0.007663410868007463,0.08092558085771198
0.008504489341802686,0.08342584600784106
0.009437878277775391,0.08611106936412534
0.010473708979594508,0.08814701890061714
0.011623224686798541,0.08888672152974661
0.01289890261253308,0.08790962938284134
0.014314589375234785,0.08494096603332185
0.015885651294280528,0.08024717538951412
0.01762914118095948,0.07418056627527002
0.01956398343517065,0.06759959346203812
0.021711179456945052,0.06146182154099448
0.02409403560239527,0.0567687315265917
0.026738416158399492,0.054522361988565846
0.029673024081888724,0.05531375940705849
0.032929712550971546,0.059370356977090276
0.036543830709572546,0.06646242462708053
0.040554607358408275,0.07573187296186773
0.04500557675700498,0.08605681934414383
0.0499450511585514,0.09604406860031947
0.05542664520663107,0.10417349487453172
0.06150985788580504,0.1094466582939385
0.06826071834272393,0.11095300075510951
0.0757525025877192,0.10873203833327245
0.08406652885618333,0.10335854869333913
0.09329304026284696,0.09601513087278969
0.10353218432956637,0.08867050841550599
0.11489510001873086,0.08328669397160736
0.1275051240713013,0.08212806631198295
0.1414991297434576,0.08714786521594042
0.15702901247293774,0.09971671966923365
0.17426333860096507,0.12077545457772237
0.19338917504552322,0.15039331297676806
0.21461411978584058,0.18793014598848062
0.23816855519761607,0.2324943393316693
0.2643081486974108,0.28226715284595627
0.29331662783900486,0.3358655014932669
0.32550885998350565,0.39128798770435996
0.36123426997094304,0.44692626292944404
0.40088063288984643,0.5013729842354804
0.4448782831127585,0.5529357255588226
0.4937047852839004,0.600975265654125
0.5478901179593945,0.6439079414473964
0.6080224261649427,0.681580888848434
0.67475440531107,0.7128301640586588
0.748810385759003,0.737583018164125
0.8309941949353403,0.7554122055030955
0.9221978823334341,0.7660721677532917
1.0234114021054528,0.7699786235888343
1.135733358343105,0.7667437251529753
1.2603829296797273,0.7574037197579083
1.3987131026472386,0.7416777432022676
1.552225357427048,0.7207749060009925
1.7225859653987874,0.694800937553014
1.9116440753857036,0.6647545168567045
2.121451784910632,0.6312709253625428
2.35428641432242,0.5949493608603725
2.612675225563332,0.5568094573381983
2.8994228538828812,0.5171101542161204
3.2176417502507353,0.47697514581088435
3.5707859649004625,0.43653106657330043
3.9626886387014784,0.3967119419500175
4.397603609302721,0.3576940795464898
4.880251583654434,0.3200520581246279
5.415871378079476,0.2840730596978233
6.010276782070388,0.24996355248478333
6.669919663030129,0.2180538038612639
7.401959996915652,0.18829314422819188
8.214343584919439,0.16093470285107603
9.115888299750837,0.13579621997671204
10.11637979766207,0.11294717236091384
11.226677735108158,0.0921976948781698
12.458833642950081,0.07347631385935338
13.826221737646593,0.056490513554690175
15.343684089300131,0.04067361411907604
17.02769172225898,0.025881289935137806
18.896523396912116,0.013300104273036246
20.970464013232306,0.005056076590964535
23.27202478960412,0.0013432362443496029
25.826187606826746,0.00024231393548669234
28.66067616948256,2.93035447933987e-05
31.80625692794119,2.362813019432073e-06
35.297073027306574,1.2674754550745017e-07
39.17101490809261,4.519152139596077e-09
43.47013158125035,1.0705864513758744e-10
48.241087041653735,1.684880642002729e-12
53.535666774107185,1.761460599121666e-14
59.411339849650396,1.2232705090644072e-16
65.93188271333541,5.643045626823421e-19
73.16807143427206,1.729196557134206e-21
81.19844993184009,3.5197693335965536e-24
90.11018251665037,4.75907774727429e-27
100.0,4.274349565107064e-30
