tau,gamma
1e-07,-0.007978780870674605
1.1097524964120721e-07,-0.040572604785710266
1.2315506032928263e-07,-0.1381067826649339
1.3667163564620074e-07,-0.31805133305354005
1.5167168884709241e-07,-0.507074794786085
1.6831803533309585e-07,-0.5832332089980996
1.867913599020781e-07,-0.505426965519596
2.0729217795953698e-07,-0.3145143551585718
2.300430119772917e-07,-0.05908283741247129
2.5529080682395163e-07,0.21931316420017047
2.833096101839324e-07,0.4889255300703582
3.1440354715915e-07,0.7169303550618633
3.489101213406774e-07,0.868652392642272
3.872038781812557e-07,0.9170404201232003
4.2970047043208437e-07,0.8359344886619516
4.768611697714474e-07,0.611870472716436
5.291978735958437e-07,0.19891693949642236
5.872786613189477e-07,-0.5621593619183455
6.517339604882421e-07,-1.9257545756427568
7.232633896483533e-07,-4.032822020590737
8.026433522257174e-07,-6.677202239340224
8.907354638610439e-07,-9.152002643628151
9.884959046625586e-07,-10.10456048863693
1.096985797892384e-06,-8.608963047322707
1.217382727739662e-06,-5.693995128124632
1.3509935211980278e-06,-3.192956634496683
1.499268432786047e-06,-1.7284690978079238
1.6638168860761274e-06,-0.8910642648549062
1.8464249428955464e-06,-0.28795811466769794
2.049074689815846e-06,0.15307770451981925
2.2739657523579273e-06,0.41345618719222366
2.523539170434766e-06,0.5203468408310048
2.800503894183631e-06,0.515584548043959
3.107866187782014e-06,0.43615819508813947
3.4489622604057595e-06,0.3090110145344904
3.827494478516315e-06,0.16043187314937482
4.247571552536894e-06,0.017961450589491345
4.713753134116729e-06,-0.09828216737126894
5.2310993080562585e-06,-0.17162678223222497
5.805225516094895e-06,-0.1961505668250916
6.44236350872137e-06,-0.1768866477684633
7.149428986597577e-06,-0.12338650712096358
7.934096665797492e-06,-0.05180495105711179
8.804883581643465e-06,0.022024081812885683
9.771241535346501e-06,0.08473213614659865
1.0843659686896109e-05,0.12542442971552129
1.2033778407775906e-05,0.14082326561584743
1.3354515629298974e-05,0.13204965970473612
1.48202070579886e-05,0.10453515293732556
1.6446761779946626e-05,0.06752526706763202
1.8251834943190462e-05,0.029465064508758524
2.0255019392306664e-05,-0.001447416981026447
2.2478058335487252e-05,-0.019662026410887108
2.4945081352303165e-05,-0.023586012203036126
2.7682866303920665e-05,-0.013816204793916795
3.072112998861759e-05,0.0058661398458635826
3.409285069746814e-05,0.030317348058380607
3.783462617131933e-05,0.054721667192699296
4.1987070844439056e-05,0.07432599321710721
4.659525668664687e-05,0.08658667502464976
5.170920242896755e-05,0.09072503299447467
5.7384416483024044e-05,0.08742902158877311
6.368249944718586e-05,0.07929500525282882
7.067181273927492e-05,0.06908033994399092
7.842822061337681e-05,0.059748169549163864
8.703591361485166e-05,0.053740091172154295
9.658832241158708e-05,0.0522453806713811
0.00010718913192051276,0.05557839760736378
0.00011895340673703195,0.06301762329301004
0.0001320088400831418,0.07297908346368616
0.00014649713983072864,0.08386363606217383
0.0001625755666443795,0.09393410465420078
0.00018041864093920718,0.10191797408327434
0.00020022003718155845,0.10729814610240336
0.0002221946860939524,0.1098795390388423
0.0002465811075822604,0.11033874247953206
0.0002736439997074672,0.10944241660783101
0.00030367711180354605,0.10819489040649895
0.00033700643292719284,0.10748873745780962
0.0003739937302478798,0.10790763885059931
0.0004150404757850477,0.10971885680685564
0.00046059220411451084,0.11283224717588912
0.0005111433483440171,0.11686726396374092
0.0005672426068491978,0.12124222372587436
0.0006294988990221888,0.12544787177827885
0.0006985879746785249,0.12885442295343383
0.0007752597488629464,0.13125598197082056
0.000860346441668451,0.1323855572595985
0.0009547716114208065,0.132380780722348
0.001059560179277617,0.13141694181587102
0.0011758495540521582,0.12977055602198795
0.0013049019780144017,0.1278088152273047
0.001448118227674533,0.12573007969539954
0.0016070528182616384,0.12380823309992466
0.0017834308769319094,0.12204997829471646
0.0019791668678535573,0.120544201139815
0.002196385372416547,0.11913221658469954
0.002437444150122222,0.11778398932774185
0.002704959730463137,0.11630739407221385
0.0030018358135755923,0.114634688983795
0.003331294787934677,0.11266922488840866
0.0036969127071950323,0.11034248799621917
0.00410265810582719,0.10769315937180286
0.004552935074866948,0.10466871767557955
0.00505263106533568,0.10140946050215244
0.005607169938205458,0.09790574223093314
0.006222570836730231,0.09434908770576321
0.006905513520162331,0.09080547394016175
0.007663410868007463,0.08746702813985185
0.008504489341802686,0.08446675778350957
0.009437878277775391,0.08193514171428007
0.010473708979594508,0.0799812488100988
0.011623224686798541,0.07860249502998058
0.01289890261253308,0.07776722444609609
0.014314589375234785,0.07729079924893101
0.015885651294280528,0.07699351992862193
0.01762914118095948,0.07655705580123075
0.01956398343517065,0.07580516450010788
0.021711179456945052,0.0744979812109847
0.02409403560239527,0.07265727457215349
0.026738416158399492,0.0703957688192231
0.029673024081888724,0.06801672042047106
0.032929712550971546,0.0660281678969172
0.036543830709572546,0.0649089520263889
0.040554607358408275,0.06521027271257727
0.04500557675700498,0.06727461043729333
0.0499450511585514,0.07121529587958336
0.05542664520663107,0.07684300714727894
0.06150985788580504,0.08368468162959489
0.06826071834272393,0.09093086152200998
0.0757525025877192,0.09785985355450691
0.08406652885618333,0.10362012185939179
0.09329304026284696,0.10783959967539294
0.10353218432956637,0.1105645931983562
0.11489510001873086,0.11230893597887724
0.1275051240713013,0.11438917102048153
0.1414991297434576,0.11829835673274909
0.15702901247293774,0.12590927552026218
0.17426333860096507,0.13893684221457778
0.19338917504552322,0.15859428896626537
0.21461411978584058,0.18543548431732845
0.23816855519761607,0.21929332928729342
0.2643081486974108,0.2588554000245269
0.29331662783900486,0.30279185278395865
0.32550885998350565,0.3490538814800292
0.36123426997094304,0.3962095011782342
0.40088063288984643,0.44363874123854763
0.4448782831127585,0.49120020373313955
0.4937047852839004,0.5405822154992609
0.5478901179593945,0.5932439410511248
0.6080224261649427,0.6514748687495227
0.67475440531107,0.7160540564769792
0.748810385759003,0.7867180219269008
0.8309941949353403,0.8599406934703574
0.9221978823334341,0.9303193409820832
1.0234114021054528,0.9890373483006074
1.135733358343105,1.02534937589694
1.2603829296797273,1.029120275770897
1.3987131026472386,0.9898164095011054
1.552225357427048,0.9055956433527652
1.7225859653987874,0.7778954804013054
1.9116440753857036,0.618085653025359
2.121451784910632,0.4449123976620595
2.35428641432242,0.278430502337476
2.612675225563332,0.14376068829333352
2.8994228538828812,0.06012871481330671
3.2176417502507353,0.04126522562807833
3.5707859649004625,0.09116872750776327
3.9626886387014784,0.19559820663131972
4.397603609302721,0.3313617632089602
4.880251583654434,0.4652930235332132
5.415871378079476,0.5568007956739043
6.010276782070388,0.5709697327650823
6.669919663030129,0.47946739876989863
7.401959996915652,0.28654705765199107
8.214343584919439,0.030191405995560045
9.115888299750837,-0.25187581043960927
10.11637979766207,-0.5091699348196403
11.226677735108158,-0.6439145029615954
12.458833642950081,-0.5015366348521492
13.826221737646593,-0.03501955461601221
15.343684089300131,0.46695206742847006
17.02769172225898,0.6241538112455799
18.896523396912116,0.43564649494110297
20.970464013232306,0.18844823849009468
23.27202478960412,0.05281604817097888
25.826187606826746,0.00973856295748239
28.66067616948256,0.0011882283583948266
31.80625692794119,9.615581794452012e-05
35.297073027306574,5.165593673696339e-06
39.17101490809261,1.8428692213867282e-07
43.47013158125035,4.366799729216867e-09
48.241087041653735,6.873101503689663e-11
53.535666774107185,7.185774496491898e-13
59.411339849650396,4.990339023872286e-15
65.93188271333541,2.3020984753085018e-17
73.16807143427206,7.054330892699342e-20
81.19844993184009,1.435906379497687e-22
90.11018251665037,1.9414888764336774e-25
100.0,1.7437419613793701e-28
