tau,gamma
1e-07,0.0006589590116371812
1.1097524964120721e-07,0.0015123655919901814
1.2315506032928263e-07,0.0029442139443348796
1.3667163564620074e-07,0.004937953769976483
1.5167168884709241e-07,0.007291841020514281
1.6831803533309585e-07,0.009747443259378812
1.867913599020781e-07,0.012158833851478614
2.0729217795953698e-07,0.014530937652417216
2.300430119772917e-07,0.016918371850816058
2.5529080682395163e-07,0.01933290451571437
2.833096101839324e-07,0.02175075264397478
3.1440354715915e-07,0.02416191134563077
3.489101213406774e-07,0.026579481549107144
3.872038781812557e-07,0.029014147310732995
4.2970047043208437e-07,0.03146257967847878
4.768611697714474e-07,0.03391950597104629
5.291978735958437e-07,0.036387285225206054
5.872786613189477e-07,0.03887101198647661
6.517339604882421e-07,0.04137171446095711
7.232633896483533e-07,0.04388765736731738
8.026433522257174e-07,0.04641863870949124
8.907354638610439e-07,0.04896619489058266
9.884959046625586e-07,0.051531099920599385
1.096985797892384e-06,0.05411265636234209
1.217382727739662e-06,0.05671000849823119
1.3509935211980278e-06,0.05932285234999216
1.499268432786047e-06,0.06195082765325103
1.6638168860761274e-06,0.0645929512527539
1.8464249428955464e-06,0.06724785293696571
2.049074689815846e-06,0.06991416278936027
2.2739657523579273e-06,0.07259046720916255
2.523539170434766e-06,0.07527507606944153
2.800503894183631e-06,0.07796599896123158
3.107866187782014e-06,0.08066109094281816
3.4489622604057595e-06,0.08335810160758654
3.827494478516315e-06,0.08605461976733213
4.247571552536894e-06,0.08874803340832144
4.713753134116729e-06,0.09143557493077199
5.2310993080562585e-06,0.09411436058863348
5.805225516094895e-06,0.09678139311724569
6.44236350872137e-06,0.09943355170358903
7.149428986597577e-06,0.10206760428290441
7.934096665797492e-06,0.10468023834594013
8.804883581643465e-06,0.10726807280890001
9.771241535346501e-06,0.10982767350887905
1.0843659686896109e-05,0.11235556027805169
1.2033778407775906e-05,0.11484823664588327
1.3354515629298974e-05,0.11730220694787803
1.48202070579886e-05,0.11971400207057929
1.6446761779946626e-05,0.12208019835703152
1.8251834943190462e-05,0.12439744414320189
2.0255019392306664e-05,0.1266624914114513
2.2478058335487252e-05,0.12887222174233734
2.4945081352303165e-05,0.1310236827798226
2.7682866303920665e-05,0.13311411130923373
3.072112998861759e-05,0.13514097702799374
3.409285069746814e-05,0.1371020119472607
3.783462617131933e-05,0.13899525418818937
4.1987070844439056e-05,0.14081907374359032
4.659525668664687e-05,0.14257221033562967
5.170920242896755e-05,0.1442538146877623
5.7384416483024044e-05,0.14586348742871208
6.368249944718586e-05,0.1474013097709414
7.067181273927492e-05,0.148867855417188
7.842822061337681e-05,0.15026423636605055
8.703591361485166e-05,0.1515921423615809
9.658832241158708e-05,0.15285386932929454
0.00010718913192051276,0.1540522886192637
0.00011895340673703195,0.15519085500764995
0.0001320088400831418,0.15627366460701667
0.00014649713983072864,0.15730549103831307
0.0001625755666443795,0.15829169603495907
0.00018041864093920718,0.15923811023755444
0.00020022003718155845,0.1601510960623931
0.0002221946860939524,0.1610376763258498
0.0002465811075822604,0.16190542265184885
0.0002736439997074672,0.16276207164941575
0.00030367711180354605,0.16361545009657552
0.00033700643292719284,0.16447386909002304
0.0003739937302478798,0.16534624188610017
0.0004150404757850477,0.1662412954243617
0.00046059220411451084,0.1671669153864297
0.0005111433483440171,0.1681313010726117
0.0005672426068491978,0.16914610551531917
0.0006294988990221888,0.17023202417379538
0.0006985879746785249,0.17143269126907557
0.0007752597488629464,0.17284705946983342
0.000860346441668451,0.1746778973307897
0.0009547716114208065,0.1772540569598199
0.001059560179277617,0.18093340278719913
0.0011758495540521582,0.18580987929578635
0.0013049019780144017,0.1913393502664053
0.001448118227674533,0.19628184300301021
0.0016070528182616384,0.19931672422399022
0.0017834308769319094,0.20011031097449247
0.0019791668678535573,0.20015721432079592
0.002196385372416547,0.20306048361913714
0.002437444150122222,0.2142728051434317
0.002704959730463137,0.23951571844925487
0.0030018358135755923,0.28057767020397406
0.003331294787934677,0.33013309080563435
0.0036969127071950323,0.3718930869852437
0.00410265810582719,0.39027485531871337
0.004552935074866948,0.38247161319466727
0.00505263106533568,0.3596007024501747
0.005607169938205458,0.33502580861184683
0.006222570836730231,0.31351137741883794
0.006905513520162331,0.2923368992912043
0.007663410868007463,0.2693962919918274
0.008504489341802686,0.24697079957012652
0.009437878277775391,0.22879048773043895
0.010473708979594508,0.2163355413349191
0.011623224686798541,0.2085007294693011
0.01289890261253308,0.20335747517315303
0.014314589375234785,0.19944901465804368
0.015885651294280528,0.19597114057471657
0.01762914118095948,0.19250532893205405
0.01956398343517065,0.18882052334194122
0.021711179456945052,0.18479391040801918
0.02409403560239527,0.18036928549310294
0.026738416158399492,0.17552674588659595
0.029673024081888724,0.170267564933714
0.032929712550971546,0.1646091669281797
0.036543830709572546,0.1585814409524178
0.040554607358408275,0.1522222570704231
0.04500557675700498,0.14557391800037703
0.0499450511585514,0.13868134682043612
0.05542664520663107,0.13159126126847956
0.06150985788580504,0.12435168656568725
0.06826071834272393,0.11701151690585097
0.0757525025877192,0.10962004811117743
0.08406652885618333,0.10222639095885562
0.09329304026284696,0.09487878709365018
0.10353218432956637,0.08762396648858899
0.11489510001873086,0.08050657893840886
0.1275051240713013,0.07356870553469061
0.1414991297434576,0.06684937860307533
0.15702901247293774,0.060384158274390524
0.17426333860096507,0.05420477892290013
0.19338917504552322,0.048338885924895846
0.21461411978584058,0.042809844596497025
0.23816855519761607,0.037636599655734286
0.2643081486974108,0.03283360331651682
0.29331662783900486,0.028410809982649096
0.32550885998350565,0.024373766217722984
0.36123426997094304,0.02072376123817776
0.40088063288984643,0.017458018728925603
0.4448782831127585,0.014569916072975126
0.4937047852839004,0.012049259454136003
0.5478901179593945,0.009882635703647369
0.6080224261649427,0.008053802561072994
0.67475440531107,0.00654406447132015
0.748810385759003,0.005332600726589645
0.8309941949353403,0.004396838561524809
0.9221978823334341,0.003713044775911279
1.0234114021054528,0.00325718687525199
1.135733358343105,0.0030057613248237673
1.2603829296797273,0.002936182910436521
1.3987131026472386,0.0030268441668885662
1.552225357427048,0.0032573425321595984
1.7225859653987874,0.0036087260152478586
1.9116440753857036,0.004062788578909808
2.121451784910632,0.00460047621943787
2.35428641432242,0.005201523290082646
2.612675225563332,0.005846493691921817
2.8994228538828812,0.006518170399686609
3.2176417502507353,0.007198754077660571
3.5707859649004625,0.007866249228280348
3.9626886387014784,0.008497313427624843
4.397603609302721,0.009074361460171364
4.880251583654434,0.009584445547485101
5.415871378079476,0.010008110210001942
6.010276782070388,0.010316851343911195
6.669919663030129,0.010489613270733495
7.401959996915652,0.010524225449123558
8.214343584919439,0.010418169015479319
9.115888299750837,0.01014430667772815
10.11637979766207,0.009670102043575981
11.226677735108158,0.009002802859661697
12.458833642950081,0.008182518682736803
13.826221737646593,0.007214434245683383
15.343684089300131,0.00604813642374992
17.02769172225898,0.004672177997378678
18.896523396912116,0.003218051278618416
20.970464013232306,0.0019236830494576418
23.27202478960412,0.0009791560798332567
25.826187606826746,0.0004190853739747061
28.66067616948256,0.00014962989934014492
31.80625692794119,4.434154470807108e-05
35.297073027306574,1.087164524227197e-05
39.17101490809261,2.200854008664607e-06
43.47013158125035,3.6739701458984234e-07
48.241087041653735,5.0532023173146375e-08
53.535666774107185,5.723362062314566e-09
59.411339849650396,5.336278880998082e-10
65.93188271333541,4.094784257733942e-11
73.16807143427206,2.5856248890172e-12
81.19844993184009,1.3433865660945192e-13
90.11018251665037,5.74263039621368e-15
100.0,2.019658050008791e-16
