tau,gamma,sigma_gamma
1e-07,-1.1983082789239532,0.5988540372867996
1.1097524964120721e-07,-1.3084403426557003,0.5914233997899834
1.2315506032928263e-07,-1.4252701359662154,0.5827057452132087
1.3667163564620074e-07,-1.5483879354160166,0.5725408621412985
1.5167168884709241e-07,-1.677163090551332,0.5607676834532499
1.6831803533309585e-07,-1.8107126855720566,0.547230803827598
1.867913599020781e-07,-1.9478728753448706,0.5317887999721106
2.0729217795953698e-07,-2.087175168239227,0.5143244554824344
2.300430119772917e-07,-2.2268302689531794,0.49475692080787337
2.5529080682395163e-07,-2.364722340403773,0.47305576055872256
2.833096101839324e-07,-2.4984166442156948,0.44925676663248765
3.1440354715915e-07,-2.6251834217519843,0.42347935890616883
3.489101213406774e-07,-2.742040532523447,0.3959453610597596
3.872038781812557e-07,-2.845816734106478,0.3669988995434734
4.2970047043208437e-07,-2.933236543933134,0.3371270018524282
4.768611697714474e-07,-3.001026369006496,0.30697977721957986
5.291978735958437e-07,-3.0460400560430685,0.27738685721838036
5.872786613189477e-07,-3.0654002688877426,0.24936093559906683
6.517339604882421e-07,-3.0566502475285233,0.22406656721796306
7.232633896483533e-07,-3.0179086852647856,0.20271267835132017
8.026433522257174e-07,-2.9480188492203183,0.18631863481565378
8.907354638610439e-07,-2.846681854413589,0.17536007543070142
9.884959046625586e-07,-2.7145633748845057,0.16945495075378653
1.096985797892384e-06,-2.553363209936947,0.16734995215222173
1.217382727739662e-06,-2.3658381506042474,0.16727592970561303
1.3509935211980278e-06,-2.1557705774059173,0.16743064718223008
1.499268432786047e-06,-1.9278781469499222,0.1663230170862011
1.6638168860761274e-06,-1.6876636749886984,0.16291616672134512
1.8464249428955464e-06,-1.441208676854444,0.15663966819856617
2.049074689815846e-06,-1.194918665965588,0.14734665165153
2.2739657523579273e-06,-0.9552328433771891,0.13525610630976032
2.523539170434766e-06,-0.728314796949121,0.12089538605617128
2.800503894183631e-06,-0.5197438252673692,0.10504820434889278
3.107866187782014e-06,-0.33422811217621984,0.08871220854780922
3.4489622604057595e-06,-0.1753609014945141,0.0730692085140615
3.827494478516315e-06,-0.04543889776459764,0.05945182756534023
4.247571552536894e-06,0.05464163794920296,0.04920335932529414
4.713753134116729e-06,0.12540101217882693,0.04317833968890487
5.2310993080562585e-06,0.1687009754589326,0.04094922141308935
5.805225516094895e-06,0.18758217991796755,0.04082170333919998
6.44236350872137e-06,0.18602535590446223,0.04096993563872966
7.149428986597577e-06,0.16865395424417784,0.04025341518801454
7.934096665797492e-06,0.14040122723304194,0.03826675180005603
8.804883581643465e-06,0.10616799300692037,0.035134901958500324
9.771241535346501e-06,0.07049825154626888,0.031329669883134646
1.0843659686896109e-05,0.03729823632238549,0.027526788739272744
1.2033778407775906e-05,0.009620494477189823,0.02443959149447892
1.3354515629298974e-05,-0.010471449447436498,0.022553790184754233
1.48202070579886e-05,-0.021949789645304918,0.021848315884442065
1.6446761779946626e-05,-0.024780645395367173,0.02182349825211329
1.8251834943190462e-05,-0.019802009223155892,0.021869538253154006
2.0255019392306664e-05,-0.00853679847557487,0.02157990432293982
2.2478058335487252e-05,0.007038169405007011,0.020833678555252783
2.4945081352303165e-05,0.024743205923527967,0.019747187604312422
2.7682866303920665e-05,0.04244195781845406,0.018581085219176355
3.072112998861759e-05,0.05825971900551963,0.01762146180636049
3.409285069746814e-05,0.0707547833111164,0.017048059817058252
3.783462617131933e-05,0.0790295334704183,0.016850180446080165
4.1987070844439056e-05,0.08277480238530188,0.016858647511478243
4.659525668664687e-05,0.08224819562229868,0.016864812556172788
5.170920242896755e-05,0.07819375798209194,0.016727418064591344
5.7384416483024044e-05,0.07171591347884032,0.016415185304583843
6.368249944718586e-05,0.0641244769574314,0.015993625725997166
7.067181273927492e-05,0.056769406471431694,0.015578182662162801
7.842822061337681e-05,0.05088375377073362,0.01527323706185062
8.703591361485166e-05,0.04745112292715703,0.015121692007791288
9.658832241158708e-05,0.04711021348117583,0.015091569741527606
0.00010718913192051276,0.050104204094395755,0.01510507887137384
0.00011895340673703195,0.056277410339475864,0.01508589876557285
0.0001320088400831418,0.06511642550881902,0.014994660313126622
0.00014649713983072864,0.07582837375699114,0.014839128238363348
0.0001625755666443795,0.08744541038871034,0.014661327862078037
0.00018041864093920718,0.09894248774517678,0.014511471042547026
0.00020022003718155845,0.1093547935753918,0.014421644203223543
0.0002221946860939524,0.11788212252966446,0.014392179016837384
0.0002465811075822604,0.12396957285034205,0.01439644269655951
0.0002736439997074672,0.1273570656751417,0.014398839946967248
0.00030367711180354605,0.12809388428493662,0.014373906260121711
0.00033700643292719284,0.12651831463725216,0.014316763034354708
0.0003739937302478798,0.12320613741172792,0.014241697162880113
0.0004150404757850477,0.11889482480461311,0.01417177263274659
0.00046059220411451084,0.1143925585956822,0.01412574189252662
0.0005111433483440171,0.11048243123599377,0.014108827984606418
0.0005672426068491978,0.10783234465208125,0.014111967797801429
0.0006294988990221888,0.10692021106825678,0.01411854216669977
0.0006985879746785249,0.107982209919669,0.014114138972932707
0.0007752597488629464,0.11098926782301533,0.014093652635545916
0.000860346441668451,0.11565386764675623,0.014062652917673614
0.0009547716114208065,0.12146605829269674,0.014033045385563377
0.001059560179277617,0.12775444233238886,0.014015850367545086
0.0011758495540521582,0.13376526517549792,0.014015099554511266
0.0013049019780144017,0.1387507808357782,0.01402610433319121
0.001448118227674533,0.14205702917558938,0.014038676555818507
0.0016070528182616384,0.14320114986003318,0.014043323341606817
0.0017834308769319094,0.14192940559314593,0.014036706167286042
0.0019791668678535573,0.1382491127415051,0.014023598028757602
0.002196385372416547,0.13243049822847297,0.014014103734425583
0.002437444150122222,0.12497784138622592,0.014017799957461927
0.002704959730463137,0.11657277022072776,0.014037879018458673
0.0030018358135755923,0.10799587627639085,0.014068708864566603
0.003331294787934677,0.10003550498299774,0.014098554324380182
0.0036969127071950323,0.09339432885053611,0.0141161776059683
0.00410265810582719,0.08860486913772547,0.014117812863196978
0.004552935074866948,0.08596437467645046,0.014110592569396207
0.00505263106533568,0.08549742404545668,0.014110024691614566
0.005607169938205458,0.08695147884873222,0.014132047977734527
0.006222570836730231,0.08982671890112215,0.014183393251182083
0.006905513520162331,0.09343728639964866,0.014255988901365027
0.007663410868007463,0.09699707104232402,0.014329390799364482
0.008504489341802686,0.09971989640257561,0.014381144808632533
0.009437878277775391,0.10092186641782064,0.0143999462895936
0.010473708979594508,0.10011301451186227,0.014394769091621084
0.011623224686798541,0.09706640097329,0.01439406689826137
0.01289890261253308,0.09185535360984431,0.014433359013473583
0.014314589375234785,0.08485336234093666,0.01453537795972004
0.015885651294280528,0.07669576310013326,0.014693709580985929
0.01762914118095948,0.06820720098448874,0.014871316067325705
0.01956398343517065,0.06030332107184222,0.01501733711810181
0.021711179456945052,0.05387860813470979,0.015094396794513115
0.02409403560239527,0.0496943121474942,0.015103102997121089
0.026738416158399492,0.04828066755112559,0.01509127965274458
0.029673024081888724,0.04986607987507341,0.015138850149227433
0.032929712550971546,0.05434278996017383,0.01531860321900647
0.036543830709572546,0.061274125850331984,0.01564967152973477
0.040554607358408275,0.06994337106925741,0.016075315877632997
0.04500557675700498,0.07943916019053177,0.01648457594915354
0.0499450511585514,0.088767805107409,0.016766810269163348
0.05542664520663107,0.09697962119298609,0.016871726452718172
0.06150985788580504,0.10329456704880613,0.01685143303756809
0.06826071834272393,0.10721253210681425,0.01686498515245299
0.0757525025877192,0.10859537124429153,0.017123336540647755
0.08406652885618333,0.10771104434502377,0.01777387972437545
0.09329304026284696,0.105234541977552,0.018790423781669653
0.10353218432956637,0.1022051197021483,0.01996442613065618
0.11489510001873086,0.09994413461686236,0.02100444789028953
0.1275051240713013,0.09994192494900744,0.021668478767368674
0.1414991297434576,0.10372524596414223,0.021878137299799937
0.15702901247293774,0.11271847549960512,0.02180607169559304
0.17426333860096507,0.128112012752581,0.021909054170729813
0.19338917504552322,0.1507500795296437,0.02280683878419785
0.21461411978584058,0.18104771988873836,0.02493226309963031
0.23816855519761607,0.2189435280156431,0.02820075694992215
0.2643081486974108,0.2638909300094383,0.03205987391293467
0.29331662783900486,0.3148871303208125,0.03578669771759186
0.32550885998350565,0.3705354964786238,0.038732756567670334
0.36123426997094304,0.42913450448463664,0.040479373065016894
0.40088063288984643,0.4887846030187575,0.04098470837034036
0.4448782831127585,0.5475035605704761,0.040777019782783724
0.4937047852839004,0.6033410061195355,0.04114470400696483
0.5478901179593945,0.6544838365077794,0.043978003787787275
0.6080224261649427,0.6993457490162882,0.05080402314846045
0.67475440531107,0.7366361355127538,0.06176985803976903
0.748810385759003,0.7654057073771128,0.07586960697024041
0.8309941949353403,0.7850682908376712,0.0917388098487179
0.9221978823334341,0.7954000624529272,0.10806813363019489
1.0234114021054528,0.7965189585526105,0.12370822250564105
1.135733358343105,0.7888480206631812,0.13769862915797615
1.2603829296797273,0.7730670147532237,0.1492998040584854
1.3987131026472386,0.7500568140499126,0.15803764916873972
1.552225357427048,0.7208408252099616,0.16375683182451245
1.7225859653987874,0.6865272486752474,0.16667884749407805
1.9116440753857036,0.6482552874491034,0.1674586118039866
2.121451784910632,0.6071476436165426,0.16722118766985675
2.35428641432242,0.5642708479926455,0.1675318392630015
2.612675225563332,0.5206042194403722,0.17021901054137742
2.8994228538828812,0.47701759316089465,0.17699310569938526
3.2176417502507353,0.4342574204933385,0.18896297959429031
3.5707859649004625,0.3929404392720244,0.20633798285269658
3.9626886387014784,0.3535538431245868,0.22851269946572914
4.397603609302721,0.3164607298034241,0.254408183922245
4.880251583654434,0.28190956564455405,0.2828103776646055
5.415871378079476,0.2500464448193611,0.31257786104179586
6.010276782070388,0.22092902643200318,0.34273113539019284
6.669919663030129,0.19454117878166244,0.37247484386879515
7.401959996915652,0.17080752953231126,0.40119067182566187
8.214343584919439,0.14960729736665712,0.42841976338371485
9.115888299750837,0.13078695252558248,0.45384231011510007
10.11637979766207,0.11417141135758868,0.47725703138740316
11.226677735108158,0.09957360762962253,0.4985614611615002
12.458833642950081,0.08680239759601704,0.5177334109155178
13.826221737646593,0.0756688456314265,0.5348138491830019
15.343684089300131,0.06599100330652163,0.549891405062343
17.02769172225898,0.057597339095423195,0.5630886651341328
18.896523396912116,0.05032900123434558,0.5745503725016208
20.970464013232306,0.04404110586735044,0.5844335611311164
23.27202478960412,0.03860323988911318,0.5928995808995166
25.826187606826746,0.03389935610202599,0.6001078995817639
28.66067616948256,0.029827220438995994,0.606211513912308
31.80625692794119,0.026297549633007122,0.6113537659292116
35.297073027306574,0.023232954973011033,0.615666342936988
39.17101490809261,0.020566785303039126,0.6192682375937836
43.47013158125035,0.01824194138468016,0.6222654556431455
48.241087041653735,0.0162097149277578,0.6247512789507136
53.535666774107185,0.014428689417012919,0.6268069172050195
59.411339849650396,0.012863726474346748,0.6285024097249856
65.93188271333541,0.011485050827175769,0.6298976667606906
73.16807143427206,0.01026743879194214,0.6310435656862291
81.19844993184009,0.009189509229768689,0.631983040412469
90.11018251665037,0.008233111842690377,0.6327521216512932
100.0,0.00738280510395839,0.6333809012271383
