freq,Zreal,Zimag,sigma_im
0.01,2.0166058773621165,-0.016637405486848778,5.95799401097441e-05
0.01258925411794166,2.0126007730108544,-0.015713774766652477,2.4270517544000558e-05
0.01584893192461111,2.009130898208399,-0.014022436199621069,2.28544081934956e-05
0.019952623149688792,2.00639265770732,-0.011765999862380028,2.166930400265832e-05
0.02511886431509577,2.004517931661882,-0.009196843248982844,1.9066982367643703e-05
0.031622776601683784,2.003560655534292,-0.0065999622791963475,1.7760310289993697e-05
0.039810717055349686,2.0034847681871595,-0.0042732318444329564,1.7647013083044172e-05
0.05011872336272714,2.0041542497896403,-0.002501081247238801,1.7526986118121535e-05
0.0630957344480193,2.005330571486943,-0.001518440737914517,1.7064654512455313e-05
0.07943282347242805,2.00668638234977,-0.0014665549911114795,1.6646987076485154e-05
0.1,2.007843743683577,-0.002349645859389682,1.65122614318447e-05
0.12589254117941662,2.0084390223362156,-0.004008156301821941,1.6511976616284674e-05
0.1584893192461111,2.0082055974153374,-0.006126262857414133,1.6448015434766816e-05
0.1995262314968879,2.0070536464640063,-0.008285445269720526,1.6317710841318167e-05
0.2511886431509577,2.0051190553403284,-0.010062121740297414,1.622383082283685e-05
0.31622776601683794,2.0027559607262404,-0.011149578029410634,1.620176990935196e-05
0.3981071705534969,2.0004613861780793,-0.011469546361002614,1.6200911506281113e-05
0.5011872336272715,1.998742787454289,-0.011234169281962636,1.617658816532863e-05
0.6309573444801929,1.9979624542005368,-0.010929115007055401,1.613830711633124e-05
0.7943282347242805,1.9982070420672997,-0.011212116995530153,1.6114872934291924e-05
1.0,1.9992284994507072,-0.012750871941580755,1.6110970618044007e-05
1.2589254117941662,2.0004825733259124,-0.01604887687779666,1.610996872025705e-05
1.584893192461111,2.001258667125475,-0.02131674746591372,1.6101257151124315e-05
1.9952623149688788,2.000861765492802,-0.028434504930611837,1.608989383056203e-05
2.5118864315095766,1.9987866121391968,-0.0370202277476146,1.6083960637236494e-05
3.1622776601683795,1.9948253325960459,-0.04658316294642262,1.608333491581737e-05
3.981071705534969,1.9890727444936107,-0.05670942405140522,1.608270729458461e-05
5.011872336272715,1.981829933141925,-0.06721782765320583,1.607968848038599e-05
6.30957344480193,1.9734417212030018,-0.07823633658344775,1.6076353643201813e-05
7.943282347242805,1.964123419970053,-0.09018004346188135,1.6074890623885008e-05
10.0,1.9538296291885078,-0.10364625215852641,1.60748219862894e-05
12.589254117941664,1.9421959175476995,-0.11926635007266029,1.607450860602322e-05
15.848931924611108,1.9285545573228375,-0.13755880334781523,1.607349607202213e-05
19.95262314968879,1.9120024036178767,-0.15881355787553986,1.6072552669277318e-05
25.118864315095767,1.8914923558813137,-0.18301524600159524,1.6072233445629802e-05
31.622776601683796,1.8659301698469597,-0.20979447139446705,1.6072250754006756e-05
39.81071705534969,1.8342769237949446,-0.2383931396433816,1.607211448850787e-05
50.11872336272725,1.7956709367632926,-0.2676424659349905,1.6071797751537886e-05
63.09573444801929,1.7495809432296845,-0.2959724310205871,1.607160086702919e-05
79.43282347242804,1.6959831313424212,-0.321485309680817,1.6071627607416872e-05
100.0,1.6355267476248878,-0.3421217437063433,1.6071683486496013e-05
125.89254117941664,1.5696312813832445,-0.35592251984671464,1.6071627767511032e-05
158.48931924611125,1.5004568516313683,-0.3613506166063196,1.607160088290538e-05
199.5262314968879,1.4307143708611683,-0.3576021627168302,1.607179856133456e-05
251.18864315095797,1.363327681320498,-0.34481879888961586,1.6072113584120196e-05
316.227766016838,1.301010401160761,-0.3241279414441536,1.607225091571074e-05
398.10717055349687,1.2458561051611654,-0.2974802240973453,1.607223482841258e-05
501.187233627272,1.1990464121910291,-0.26731166183260413,1.6072553757351393e-05
630.957344480193,1.1607530419231264,-0.2361116004159669,1.607349646448597e-05
794.3282347242813,1.130255331196898,-0.20600693119135016,1.6074508921271047e-05
1000.0,1.1062323635842017,-0.17846741880227057,1.607482181031905e-05
1258.9254117941662,1.087140095273861,-0.1541980006013759,1.6074891627193555e-05
1584.8931924611124,1.0715650549144617,-0.1332252158929137,1.6076354962590855e-05
1995.2623149688789,1.058462841889297,-0.11512694650922128,1.6079689840908795e-05
2511.8864315095802,1.0472345469565727,-0.09931699431815844,1.608270877018203e-05
3162.2776601683795,1.03765047003211,-0.08529034201470509,1.608333527830519e-05
3981.0717055349687,1.0296780130427297,-0.07276098111879037,1.608396083468966e-05
5011.8723362727205,1.0232935725538397,-0.061670364459843086,1.6089894914250724e-05
6309.57344480193,1.0183507466392703,-0.052092764945740555,1.6101257868994523e-05
7943.282347242814,1.014544865226114,-0.0440965905311117,1.610996976653123e-05
10000.0,1.0114711446630407,-0.03762763511295475,1.6110971692406828e-05
12589.254117941662,1.0087377082192317,-0.03246157160314311,1.6114873804318197e-05
15848.93192461114,1.0060782383856783,-0.02823868921560546,1.6138307609936398e-05
19952.623149688792,1.0034162141644831,-0.02455898792997857,1.617658983121828e-05
25118.864315095827,1.0008579028317457,-0.02109398167762322,1.6200912477892793e-05
31622.776601683792,0.9986223254111852,-0.017670012329347173,1.6201771197488224e-05
39810.71705534969,0.9969401377427364,-0.014294309156895224,1.622383161947738e-05
50118.72336272724,0.9959611476377522,-0.011120968754710248,1.6317711340696484e-05
63095.7344480193,0.9957010357095935,-0.008377361166850505,1.6448017197578935e-05
79432.82347242821,0.9960379519134961,-0.006281980117080366,1.65119776498468e-05
100000.0,0.9967489134976754,-0.00498287040534251,1.6512262416168433e-05
125892.5411794166,0.9975632350453949,-0.0045300555409113485,1.6646988279633845e-05
158489.3192461114,0.9982097504001435,-0.004878932517939916,1.7064654636467225e-05
199526.2314968879,0.9984445370500291,-0.005908897139164537,1.7526986881788442e-05
251188.6431509582,0.9980599731138148,-0.007439659847420899,1.7647013907329256e-05
316227.7660168379,0.9968868523165397,-0.009234702732840105,1.7760310144721014e-05
398107.17055349686,0.9948038382949248,-0.010993575386891052,1.906698301407106e-05
501187.2336272725,0.9917619127371862,-0.012345182578755498,2.1669304614335694e-05
630957.344480193,0.9878189909294125,-0.012857480509893549,2.2854408145034366e-05
794328.2347242822,0.983167375895252,-0.012074682542206006,2.4270518043767453e-05
1000000.0,0.9781307181315028,-0.009581368860480666,5.957994040622916e-05
